descriptor BJD Tc_folded phase mod 
2459174.219170 -0.098447 0.540799 0.000000
2459174.219189 -0.098428 0.540807 0.000000
2459174.219209 -0.098409 0.540815 0.000000
2459174.219228 -0.098389 0.540822 0.000000
2459174.219247 -0.098370 0.540830 0.000000
2459174.219267 -0.098350 0.540838 0.000000
2459174.219286 -0.098331 0.540846 0.000000
2459174.219306 -0.098311 0.540854 0.000000
2459174.219325 -0.098292 0.540862 0.000000
2459174.219344 -0.098273 0.540870 0.000000
2459174.219364 -0.098253 0.540878 0.000000
2459174.219383 -0.098234 0.540885 0.000000
2459174.219403 -0.098214 0.540893 0.000000
2459174.219422 -0.098195 0.540901 0.000000
2459174.219442 -0.098176 0.540909 0.000000
2459174.219461 -0.098156 0.540917 0.000000
2459174.219480 -0.098137 0.540925 0.000000
2459174.219500 -0.098117 0.540933 0.000000
2459174.219519 -0.098098 0.540940 0.000000
2459174.219539 -0.098078 0.540948 0.000000
2459174.219558 -0.098059 0.540956 0.000000
2459174.219578 -0.098040 0.540964 0.000000
2459174.219597 -0.098020 0.540972 0.000000
2459174.219616 -0.098001 0.540980 0.000000
2459174.219636 -0.097981 0.540988 0.000000
2459174.219655 -0.097962 0.540996 0.000000
2459174.219675 -0.097942 0.541003 0.000000
2459174.219694 -0.097923 0.541011 0.000000
2459174.219714 -0.097904 0.541019 0.000000
2459174.219733 -0.097884 0.541027 0.000000
2459174.219752 -0.097865 0.541035 0.000000
2459174.219772 -0.097845 0.541043 0.000000
2459174.219791 -0.097826 0.541051 0.000000
2459174.219811 -0.097806 0.541058 0.000000
2459174.219830 -0.097787 0.541066 0.000000
2459174.219849 -0.097768 0.541074 0.000000
2459174.219869 -0.097748 0.541082 0.000000
2459174.219888 -0.097729 0.541090 0.000000
2459174.219908 -0.097709 0.541098 0.000000
2459174.219927 -0.097690 0.541106 0.000000
2459174.219947 -0.097671 0.541114 0.000000
2459174.219966 -0.097651 0.541121 0.000000
2459174.219985 -0.097632 0.541129 0.000000
2459174.220005 -0.097612 0.541137 0.000000
2459174.220024 -0.097593 0.541145 0.000000
2459174.220044 -0.097573 0.541153 0.000000
2459174.220063 -0.097554 0.541161 0.000000
2459174.220083 -0.097535 0.541169 0.000000
2459174.220102 -0.097515 0.541177 0.000000
2459174.220121 -0.097496 0.541184 0.000000
2459174.220141 -0.097476 0.541192 0.000000
2459174.220160 -0.097457 0.541200 0.000000
2459174.220180 -0.097437 0.541208 0.000000
2459174.220199 -0.097418 0.541216 0.000000
2459174.220218 -0.097399 0.541224 0.000000
2459174.220238 -0.097379 0.541232 0.000000
2459174.220257 -0.097360 0.541239 0.000000
2459174.220277 -0.097340 0.541247 0.000000
2459174.220296 -0.097321 0.541255 0.000000
2459174.220316 -0.097302 0.541263 0.000000
2459174.220335 -0.097282 0.541271 0.000000
2459174.220354 -0.097263 0.541279 0.000000
2459174.220374 -0.097243 0.541287 0.000000
2459174.220393 -0.097224 0.541295 0.000000
2459174.220413 -0.097204 0.541302 0.000000
2459174.220432 -0.097185 0.541310 0.000000
2459174.220452 -0.097166 0.541318 0.000000
2459174.220471 -0.097146 0.541326 0.000000
2459174.220490 -0.097127 0.541334 0.000000
2459174.220510 -0.097107 0.541342 0.000000
2459174.220529 -0.097088 0.541350 0.000000
2459174.220549 -0.097068 0.541357 0.000000
2459174.220568 -0.097049 0.541365 0.000000
2459174.220587 -0.097030 0.541373 0.000000
2459174.220607 -0.097010 0.541381 0.000000
2459174.220626 -0.096991 0.541389 0.000000
2459174.220646 -0.096971 0.541397 0.000000
2459174.220665 -0.096952 0.541405 0.000000
2459174.220685 -0.096933 0.541413 0.000000
2459174.220704 -0.096913 0.541420 0.000000
2459174.220723 -0.096894 0.541428 0.000000
2459174.220743 -0.096874 0.541436 0.000000
2459174.220762 -0.096855 0.541444 0.000000
2459174.220782 -0.096835 0.541452 0.000000
2459174.220801 -0.096816 0.541460 0.000000
2459174.220821 -0.096797 0.541468 0.000000
2459174.220840 -0.096777 0.541476 0.000000
2459174.220859 -0.096758 0.541483 0.000000
2459174.220879 -0.096738 0.541491 0.000000
2459174.220898 -0.096719 0.541499 0.000000
2459174.220918 -0.096699 0.541507 0.000000
2459174.220937 -0.096680 0.541515 0.000000
2459174.220957 -0.096661 0.541523 0.000000
2459174.220976 -0.096641 0.541531 0.000000
2459174.220995 -0.096622 0.541538 0.000000
2459174.221015 -0.096602 0.541546 0.000000
2459174.221034 -0.096583 0.541554 0.000000
2459174.221054 -0.096563 0.541562 0.000000
2459174.221073 -0.096544 0.541570 0.000000
2459174.221092 -0.096525 0.541578 0.000000
2459174.221112 -0.096505 0.541586 0.000000
2459174.221131 -0.096486 0.541594 0.000000
2459174.221151 -0.096466 0.541601 0.000000
2459174.221170 -0.096447 0.541609 0.000000
2459174.221190 -0.096428 0.541617 0.000000
2459174.221209 -0.096408 0.541625 0.000000
2459174.221228 -0.096389 0.541633 0.000000
2459174.221248 -0.096369 0.541641 0.000000
2459174.221267 -0.096350 0.541649 0.000000
2459174.221287 -0.096330 0.541656 0.000000
2459174.221306 -0.096311 0.541664 0.000000
2459174.221326 -0.096292 0.541672 0.000000
2459174.221345 -0.096272 0.541680 0.000000
2459174.221364 -0.096253 0.541688 0.000000
2459174.221384 -0.096233 0.541696 0.000000
2459174.221403 -0.096214 0.541704 0.000000
2459174.221423 -0.096194 0.541712 0.000000
2459174.221442 -0.096175 0.541719 0.000000
2459174.221461 -0.096156 0.541727 0.000000
2459174.221481 -0.096136 0.541735 0.000000
2459174.221500 -0.096117 0.541743 0.000000
2459174.221520 -0.096097 0.541751 0.000000
2459174.221539 -0.096078 0.541759 0.000000
2459174.221559 -0.096059 0.541767 0.000000
2459174.221578 -0.096039 0.541775 0.000000
2459174.221597 -0.096020 0.541782 0.000000
2459174.221617 -0.096000 0.541790 0.000000
2459174.221636 -0.095981 0.541798 0.000000
2459174.221656 -0.095961 0.541806 0.000000
2459174.221675 -0.095942 0.541814 0.000000
2459174.221695 -0.095923 0.541822 0.000000
2459174.221714 -0.095903 0.541830 0.000000
2459174.221733 -0.095884 0.541837 0.000000
2459174.221753 -0.095864 0.541845 0.000000
2459174.221772 -0.095845 0.541853 0.000000
2459174.221792 -0.095825 0.541861 0.000000
2459174.221811 -0.095806 0.541869 0.000000
2459174.221830 -0.095787 0.541877 0.000000
2459174.221850 -0.095767 0.541885 0.000000
2459174.221869 -0.095748 0.541893 0.000000
2459174.221889 -0.095728 0.541900 0.000000
2459174.221908 -0.095709 0.541908 0.000000
2459174.221928 -0.095690 0.541916 0.000000
2459174.221947 -0.095670 0.541924 0.000000
2459174.221966 -0.095651 0.541932 0.000000
2459174.221986 -0.095631 0.541940 0.000000
2459174.222005 -0.095612 0.541948 0.000000
2459174.222025 -0.095592 0.541955 0.000000
2459174.222044 -0.095573 0.541963 0.000000
2459174.222064 -0.095554 0.541971 0.000000
2459174.222083 -0.095534 0.541979 0.000000
2459174.222102 -0.095515 0.541987 0.000000
2459174.222122 -0.095495 0.541995 0.000000
2459174.222141 -0.095476 0.542003 0.000000
2459174.222161 -0.095456 0.542011 0.000000
2459174.222180 -0.095437 0.542018 0.000000
2459174.222200 -0.095418 0.542026 0.000000
2459174.222219 -0.095398 0.542034 0.000000
2459174.222238 -0.095379 0.542042 0.000000
2459174.222258 -0.095359 0.542050 0.000000
2459174.222277 -0.095340 0.542058 0.000000
2459174.222297 -0.095321 0.542066 0.000000
2459174.222316 -0.095301 0.542074 0.000000
2459174.222335 -0.095282 0.542081 0.000000
2459174.222355 -0.095262 0.542089 0.000000
2459174.222374 -0.095243 0.542097 0.000000
2459174.222394 -0.095223 0.542105 0.000000
2459174.222413 -0.095204 0.542113 0.000000
2459174.222433 -0.095185 0.542121 0.000000
2459174.222452 -0.095165 0.542129 0.000000
2459174.222471 -0.095146 0.542136 0.000000
2459174.222491 -0.095126 0.542144 0.000000
2459174.222510 -0.095107 0.542152 0.000000
2459174.222530 -0.095087 0.542160 0.000000
2459174.222549 -0.095068 0.542168 0.000000
2459174.222569 -0.095049 0.542176 0.000000
2459174.222588 -0.095029 0.542184 0.000000
2459174.222607 -0.095010 0.542192 0.000000
2459174.222627 -0.094990 0.542199 0.000000
2459174.222646 -0.094971 0.542207 0.000000
2459174.222666 -0.094951 0.542215 0.000000
2459174.222685 -0.094932 0.542223 0.000000
2459174.222704 -0.094913 0.542231 0.000000
2459174.222724 -0.094893 0.542239 0.000000
2459174.222743 -0.094874 0.542247 0.000000
2459174.222763 -0.094854 0.542255 0.000000
2459174.222782 -0.094835 0.542262 0.000000
2459174.222802 -0.094816 0.542270 0.000000
2459174.222821 -0.094796 0.542278 0.000000
2459174.222840 -0.094777 0.542286 0.000000
2459174.222860 -0.094757 0.542294 0.000000
2459174.222879 -0.094738 0.542302 0.000000
2459174.222899 -0.094718 0.542310 0.000000
2459174.222918 -0.094699 0.542317 0.000000
2459174.222938 -0.094680 0.542325 0.000000
2459174.222957 -0.094660 0.542333 0.000000
2459174.222976 -0.094641 0.542341 0.000000
2459174.222996 -0.094621 0.542349 0.000000
2459174.223015 -0.094602 0.542357 0.000000
2459174.223035 -0.094582 0.542365 0.000000
2459174.223054 -0.094563 0.542373 0.000000
2459174.223073 -0.094544 0.542380 0.000000
2459174.223093 -0.094524 0.542388 0.000000
2459174.223112 -0.094505 0.542396 0.000000
2459174.223132 -0.094485 0.542404 0.000000
2459174.223151 -0.094466 0.542412 0.000000
2459174.223171 -0.094447 0.542420 0.000000
2459174.223190 -0.094427 0.542428 0.000000
2459174.223209 -0.094408 0.542435 0.000000
2459174.223229 -0.094388 0.542443 0.000000
2459174.223248 -0.094369 0.542451 0.000000
2459174.223268 -0.094349 0.542459 0.000000
2459174.223287 -0.094330 0.542467 0.000000
2459174.223307 -0.094311 0.542475 0.000000
2459174.223326 -0.094291 0.542483 0.000000
2459174.223345 -0.094272 0.542491 0.000000
2459174.223365 -0.094252 0.542498 0.000000
2459174.223384 -0.094233 0.542506 0.000000
2459174.223404 -0.094213 0.542514 0.000000
2459174.223423 -0.094194 0.542522 0.000000
2459174.223442 -0.094175 0.542530 0.000000
2459174.223462 -0.094155 0.542538 0.000000
2459174.223481 -0.094136 0.542546 0.000000
2459174.223501 -0.094116 0.542554 0.000000
2459174.223520 -0.094097 0.542561 0.000000
2459174.223540 -0.094078 0.542569 0.000000
2459174.223559 -0.094058 0.542577 0.000000
2459174.223578 -0.094039 0.542585 0.000000
2459174.223598 -0.094019 0.542593 0.000000
2459174.223617 -0.094000 0.542601 0.000000
2459174.223637 -0.093980 0.542609 0.000000
2459174.223656 -0.093961 0.542616 0.000000
2459174.223676 -0.093942 0.542624 0.000000
2459174.223695 -0.093922 0.542632 0.000000
2459174.223714 -0.093903 0.542640 0.000000
2459174.223734 -0.093883 0.542648 0.000000
2459174.223753 -0.093864 0.542656 0.000000
2459174.223773 -0.093844 0.542664 0.000000
2459174.223792 -0.093825 0.542672 0.000000
2459174.223812 -0.093806 0.542679 0.000000
2459174.223831 -0.093786 0.542687 0.000000
2459174.223850 -0.093767 0.542695 0.000000
2459174.223870 -0.093747 0.542703 0.000000
2459174.223889 -0.093728 0.542711 0.000000
2459174.223909 -0.093708 0.542719 0.000000
2459174.223928 -0.093689 0.542727 0.000000
2459174.223947 -0.093670 0.542734 0.000000
2459174.223967 -0.093650 0.542742 0.000000
2459174.223986 -0.093631 0.542750 0.000000
2459174.224006 -0.093611 0.542758 0.000000
2459174.224025 -0.093592 0.542766 0.000000
2459174.224045 -0.093573 0.542774 0.000000
2459174.224064 -0.093553 0.542782 0.000000
2459174.224083 -0.093534 0.542790 0.000000
2459174.224103 -0.093514 0.542797 0.000000
2459174.224122 -0.093495 0.542805 0.000000
2459174.224142 -0.093475 0.542813 0.000000
2459174.224161 -0.093456 0.542821 0.000000
2459174.224181 -0.093437 0.542829 0.000000
2459174.224200 -0.093417 0.542837 0.000000
2459174.224219 -0.093398 0.542845 0.000000
2459174.224239 -0.093378 0.542853 0.000000
2459174.224258 -0.093359 0.542860 0.000000
2459174.224278 -0.093339 0.542868 0.000000
2459174.224297 -0.093320 0.542876 0.000000
2459174.224316 -0.093301 0.542884 0.000000
2459174.224336 -0.093281 0.542892 0.000000
2459174.224355 -0.093262 0.542900 0.000000
2459174.224375 -0.093242 0.542908 0.000000
2459174.224394 -0.093223 0.542915 0.000000
2459174.224414 -0.093204 0.542923 0.000000
2459174.224433 -0.093184 0.542931 0.000000
2459174.224452 -0.093165 0.542939 0.000000
2459174.224472 -0.093145 0.542947 0.000000
2459174.224491 -0.093126 0.542955 0.000000
2459174.224511 -0.093106 0.542963 0.000000
2459174.224530 -0.093087 0.542971 0.000000
2459174.224550 -0.093068 0.542978 0.000000
2459174.224569 -0.093048 0.542986 0.000000
2459174.224588 -0.093029 0.542994 0.000000
2459174.224608 -0.093009 0.543002 0.000000
2459174.224627 -0.092990 0.543010 0.000000
2459174.224647 -0.092970 0.543018 0.000000
2459174.224666 -0.092951 0.543026 0.000000
2459174.224685 -0.092932 0.543033 0.000000
2459174.224705 -0.092912 0.543041 0.000000
2459174.224724 -0.092893 0.543049 0.000000
2459174.224744 -0.092873 0.543057 0.000000
2459174.224763 -0.092854 0.543065 0.000000
2459174.224783 -0.092835 0.543073 0.000000
2459174.224802 -0.092815 0.543081 0.000000
2459174.224821 -0.092796 0.543089 0.000000
2459174.224841 -0.092776 0.543096 0.000000
2459174.224860 -0.092757 0.543104 0.000000
2459174.224880 -0.092737 0.543112 0.000000
2459174.224899 -0.092718 0.543120 0.000000
2459174.224919 -0.092699 0.543128 0.000000
2459174.224938 -0.092679 0.543136 0.000000
2459174.224957 -0.092660 0.543144 0.000000
2459174.224977 -0.092640 0.543152 0.000000
2459174.224996 -0.092621 0.543159 0.000000
2459174.225016 -0.092601 0.543167 0.000000
2459174.225035 -0.092582 0.543175 0.000000
2459174.225055 -0.092563 0.543183 0.000000
2459174.225074 -0.092543 0.543191 0.000000
2459174.225093 -0.092524 0.543199 0.000000
2459174.225113 -0.092504 0.543207 0.000000
2459174.225132 -0.092485 0.543214 0.000000
2459174.225152 -0.092465 0.543222 0.000000
2459174.225171 -0.092446 0.543230 0.000000
2459174.225190 -0.092427 0.543238 0.000000
2459174.225210 -0.092407 0.543246 0.000000
2459174.225229 -0.092388 0.543254 0.000000
2459174.225249 -0.092368 0.543262 0.000000
2459174.225268 -0.092349 0.543270 0.000000
2459174.225288 -0.092330 0.543277 0.000000
2459174.225307 -0.092310 0.543285 0.000000
2459174.225326 -0.092291 0.543293 0.000000
2459174.225346 -0.092271 0.543301 0.000000
2459174.225365 -0.092252 0.543309 0.000000
2459174.225385 -0.092232 0.543317 0.000000
2459174.225404 -0.092213 0.543325 0.000000
2459174.225424 -0.092194 0.543332 0.000000
2459174.225443 -0.092174 0.543340 0.000000
2459174.225462 -0.092155 0.543348 0.000000
2459174.225482 -0.092135 0.543356 0.000000
2459174.225501 -0.092116 0.543364 0.000000
2459174.225521 -0.092096 0.543372 0.000000
2459174.225540 -0.092077 0.543380 0.000000
2459174.225559 -0.092058 0.543388 0.000000
2459174.225579 -0.092038 0.543395 0.000000
2459174.225598 -0.092019 0.543403 0.000000
2459174.225618 -0.091999 0.543411 0.000000
2459174.225637 -0.091980 0.543419 0.000000
2459174.225657 -0.091961 0.543427 0.000000
2459174.225676 -0.091941 0.543435 0.000000
2459174.225695 -0.091922 0.543443 0.000000
2459174.225715 -0.091902 0.543451 0.000000
2459174.225734 -0.091883 0.543458 0.000000
2459174.225754 -0.091863 0.543466 0.000000
2459174.225773 -0.091844 0.543474 0.000000
2459174.225793 -0.091825 0.543482 0.000000
2459174.225812 -0.091805 0.543490 0.000000
2459174.225831 -0.091786 0.543498 0.000000
2459174.225851 -0.091766 0.543506 0.000000
2459174.225870 -0.091747 0.543513 0.000000
2459174.225890 -0.091727 0.543521 0.000000
2459174.225909 -0.091708 0.543529 0.000000
2459174.225928 -0.091689 0.543537 0.000000
2459174.225948 -0.091669 0.543545 0.000000
2459174.225967 -0.091650 0.543553 0.000000
2459174.225987 -0.091630 0.543561 0.000000
2459174.226006 -0.091611 0.543569 0.000000
2459174.226026 -0.091592 0.543576 0.000000
2459174.226045 -0.091572 0.543584 0.000000
2459174.226064 -0.091553 0.543592 0.000000
2459174.226084 -0.091533 0.543600 0.000000
2459174.226103 -0.091514 0.543608 0.000000
2459174.226123 -0.091494 0.543616 0.000000
2459174.226142 -0.091475 0.543624 0.000000
2459174.226162 -0.091456 0.543631 0.000000
2459174.226181 -0.091436 0.543639 0.000000
2459174.226200 -0.091417 0.543647 0.000000
2459174.226220 -0.091397 0.543655 0.000000
2459174.226239 -0.091378 0.543663 0.000000
2459174.226259 -0.091358 0.543671 0.000000
2459174.226278 -0.091339 0.543679 0.000000
2459174.226298 -0.091320 0.543687 0.000000
2459174.226317 -0.091300 0.543694 0.000000
2459174.226336 -0.091281 0.543702 0.000000
2459174.226356 -0.091261 0.543710 0.000000
2459174.226375 -0.091242 0.543718 0.000000
2459174.226395 -0.091223 0.543726 0.000000
2459174.226414 -0.091203 0.543734 0.000000
2459174.226433 -0.091184 0.543742 0.000000
2459174.226453 -0.091164 0.543750 0.000000
2459174.226472 -0.091145 0.543757 0.000000
2459174.226492 -0.091125 0.543765 0.000000
2459174.226511 -0.091106 0.543773 0.000000
2459174.226531 -0.091087 0.543781 0.000000
2459174.226550 -0.091067 0.543789 0.000000
2459174.226569 -0.091048 0.543797 0.000000
2459174.226589 -0.091028 0.543805 0.000000
2459174.226608 -0.091009 0.543812 0.000000
2459174.226628 -0.090989 0.543820 0.000000
2459174.226647 -0.090970 0.543828 0.000000
2459174.226667 -0.090951 0.543836 0.000000
2459174.226686 -0.090931 0.543844 0.000000
2459174.226705 -0.090912 0.543852 0.000000
2459174.226725 -0.090892 0.543860 0.000000
2459174.226744 -0.090873 0.543868 0.000000
2459174.226764 -0.090853 0.543875 0.000000
2459174.226783 -0.090834 0.543883 0.000000
2459174.226802 -0.090815 0.543891 0.000000
2459174.226822 -0.090795 0.543899 0.000000
2459174.226841 -0.090776 0.543907 0.000000
2459174.226861 -0.090756 0.543915 0.000000
2459174.226880 -0.090737 0.543923 0.000000
2459174.226900 -0.090718 0.543930 0.000000
2459174.226919 -0.090698 0.543938 0.000000
2459174.226938 -0.090679 0.543946 0.000000
2459174.226958 -0.090659 0.543954 0.000000
2459174.226977 -0.090640 0.543962 0.000000
2459174.226997 -0.090620 0.543970 0.000000
2459174.227016 -0.090601 0.543978 0.000000
2459174.227036 -0.090582 0.543986 0.000000
2459174.227055 -0.090562 0.543993 0.000000
2459174.227074 -0.090543 0.544001 0.000000
2459174.227094 -0.090523 0.544009 0.000000
2459174.227113 -0.090504 0.544017 0.000000
2459174.227133 -0.090484 0.544025 0.000000
2459174.227152 -0.090465 0.544033 0.000000
2459174.227171 -0.090446 0.544041 0.000000
2459174.227191 -0.090426 0.544049 0.000000
2459174.227210 -0.090407 0.544056 0.000000
2459174.227230 -0.090387 0.544064 0.000000
2459174.227249 -0.090368 0.544072 0.000000
2459174.227269 -0.090349 0.544080 0.000000
2459174.227288 -0.090329 0.544088 0.000000
2459174.227307 -0.090310 0.544096 0.000000
2459174.227327 -0.090290 0.544104 0.000000
2459174.227346 -0.090271 0.544111 0.000000
2459174.227366 -0.090251 0.544119 0.000000
2459174.227385 -0.090232 0.544127 0.000000
2459174.227405 -0.090213 0.544135 0.000000
2459174.227424 -0.090193 0.544143 0.000000
2459174.227443 -0.090174 0.544151 0.000000
2459174.227463 -0.090154 0.544159 0.000000
2459174.227482 -0.090135 0.544167 0.000000
2459174.227502 -0.090115 0.544174 0.000000
2459174.227521 -0.090096 0.544182 0.000000
2459174.227540 -0.090077 0.544190 0.000000
2459174.227560 -0.090057 0.544198 0.000000
2459174.227579 -0.090038 0.544206 0.000000
2459174.227599 -0.090018 0.544214 0.000000
2459174.227618 -0.089999 0.544222 0.000000
2459174.227638 -0.089980 0.544229 0.000000
2459174.227657 -0.089960 0.544237 0.000000
2459174.227676 -0.089941 0.544245 0.000000
2459174.227696 -0.089921 0.544253 0.000000
2459174.227715 -0.089902 0.544261 0.000000
2459174.227735 -0.089882 0.544269 0.000000
2459174.227754 -0.089863 0.544277 0.000000
2459174.227774 -0.089844 0.544285 0.000000
2459174.227793 -0.089824 0.544292 0.000000
2459174.227812 -0.089805 0.544300 0.000000
2459174.227832 -0.089785 0.544308 0.000000
2459174.227851 -0.089766 0.544316 0.000000
2459174.227871 -0.089746 0.544324 0.000000
2459174.227890 -0.089727 0.544332 0.000000
2459174.227910 -0.089708 0.544340 0.000000
2459174.227929 -0.089688 0.544348 0.000000
2459174.227948 -0.089669 0.544355 0.000000
2459174.227968 -0.089649 0.544363 0.000000
2459174.227987 -0.089630 0.544371 0.000000
2459174.228007 -0.089610 0.544379 0.000000
2459174.228026 -0.089591 0.544387 0.000000
2459174.228045 -0.089572 0.544395 0.000000
2459174.228065 -0.089552 0.544403 0.000000
2459174.228084 -0.089533 0.544410 0.000000
2459174.228104 -0.089513 0.544418 0.000000
2459174.228123 -0.089494 0.544426 0.000000
2459174.228143 -0.089475 0.544434 0.000000
2459174.228162 -0.089455 0.544442 0.000000
