descriptor BJD Tc_folded phase mod 
2459174.219170 -0.098147 0.235042 0.000000
2459174.219189 -0.098128 0.235050 0.000000
2459174.219209 -0.098108 0.235058 0.000000
2459174.219228 -0.098089 0.235066 0.000000
2459174.219247 -0.098070 0.235074 0.000000
2459174.219267 -0.098050 0.235083 0.000000
2459174.219286 -0.098031 0.235091 0.000000
2459174.219306 -0.098011 0.235099 0.000000
2459174.219325 -0.097992 0.235107 0.000000
2459174.219344 -0.097973 0.235115 0.000000
2459174.219364 -0.097953 0.235123 0.000000
2459174.219383 -0.097934 0.235132 0.000000
2459174.219403 -0.097914 0.235140 0.000000
2459174.219422 -0.097895 0.235148 0.000000
2459174.219442 -0.097875 0.235156 0.000000
2459174.219461 -0.097856 0.235164 0.000000
2459174.219480 -0.097837 0.235172 0.000000
2459174.219500 -0.097817 0.235180 0.000000
2459174.219519 -0.097798 0.235189 0.000000
2459174.219539 -0.097778 0.235197 0.000000
2459174.219558 -0.097759 0.235205 0.000000
2459174.219578 -0.097739 0.235213 0.000000
2459174.219597 -0.097720 0.235221 0.000000
2459174.219616 -0.097701 0.235229 0.000000
2459174.219636 -0.097681 0.235238 0.000000
2459174.219655 -0.097662 0.235246 0.000000
2459174.219675 -0.097642 0.235254 0.000000
2459174.219694 -0.097623 0.235262 0.000000
2459174.219714 -0.097603 0.235270 0.000000
2459174.219733 -0.097584 0.235278 0.000000
2459174.219752 -0.097565 0.235287 0.000000
2459174.219772 -0.097545 0.235295 0.000000
2459174.219791 -0.097526 0.235303 0.000000
2459174.219811 -0.097506 0.235311 0.000000
2459174.219830 -0.097487 0.235319 0.000000
2459174.219849 -0.097468 0.235327 0.000000
2459174.219869 -0.097448 0.235335 0.000000
2459174.219888 -0.097429 0.235344 0.000000
2459174.219908 -0.097409 0.235352 0.000000
2459174.219927 -0.097390 0.235360 0.000000
2459174.219947 -0.097370 0.235368 0.000000
2459174.219966 -0.097351 0.235376 0.000000
2459174.219985 -0.097332 0.235384 0.000000
2459174.220005 -0.097312 0.235393 0.000000
2459174.220024 -0.097293 0.235401 0.000000
2459174.220044 -0.097273 0.235409 0.000000
2459174.220063 -0.097254 0.235417 0.000000
2459174.220083 -0.097234 0.235425 0.000000
2459174.220102 -0.097215 0.235433 0.000000
2459174.220121 -0.097196 0.235441 0.000000
2459174.220141 -0.097176 0.235450 0.000000
2459174.220160 -0.097157 0.235458 0.000000
2459174.220180 -0.097137 0.235466 0.000000
2459174.220199 -0.097118 0.235474 0.000000
2459174.220218 -0.097099 0.235482 0.000000
2459174.220238 -0.097079 0.235490 0.000000
2459174.220257 -0.097060 0.235499 0.000000
2459174.220277 -0.097040 0.235507 0.000000
2459174.220296 -0.097021 0.235515 0.000000
2459174.220316 -0.097001 0.235523 0.000000
2459174.220335 -0.096982 0.235531 0.000000
2459174.220354 -0.096963 0.235539 0.000000
2459174.220374 -0.096943 0.235548 0.000000
2459174.220393 -0.096924 0.235556 0.000000
2459174.220413 -0.096904 0.235564 0.000000
2459174.220432 -0.096885 0.235572 0.000000
2459174.220452 -0.096865 0.235580 0.000000
2459174.220471 -0.096846 0.235588 0.000000
2459174.220490 -0.096827 0.235596 0.000000
2459174.220510 -0.096807 0.235605 0.000000
2459174.220529 -0.096788 0.235613 0.000000
2459174.220549 -0.096768 0.235621 0.000000
2459174.220568 -0.096749 0.235629 0.000000
2459174.220587 -0.096730 0.235637 0.000000
2459174.220607 -0.096710 0.235645 0.000000
2459174.220626 -0.096691 0.235654 0.000000
2459174.220646 -0.096671 0.235662 0.000000
2459174.220665 -0.096652 0.235670 0.000000
2459174.220685 -0.096632 0.235678 0.000000
2459174.220704 -0.096613 0.235686 0.000000
2459174.220723 -0.096594 0.235694 0.000000
2459174.220743 -0.096574 0.235702 0.000000
2459174.220762 -0.096555 0.235711 0.000000
2459174.220782 -0.096535 0.235719 0.000000
2459174.220801 -0.096516 0.235727 0.000000
2459174.220821 -0.096496 0.235735 0.000000
2459174.220840 -0.096477 0.235743 0.000000
2459174.220859 -0.096458 0.235751 0.000000
2459174.220879 -0.096438 0.235760 0.000000
2459174.220898 -0.096419 0.235768 0.000000
2459174.220918 -0.096399 0.235776 0.000000
2459174.220937 -0.096380 0.235784 0.000000
2459174.220957 -0.096360 0.235792 0.000000
2459174.220976 -0.096341 0.235800 0.000000
2459174.220995 -0.096322 0.235809 0.000000
2459174.221015 -0.096302 0.235817 0.000000
2459174.221034 -0.096283 0.235825 0.000000
2459174.221054 -0.096263 0.235833 0.000000
2459174.221073 -0.096244 0.235841 0.000000
2459174.221092 -0.096225 0.235849 0.000000
2459174.221112 -0.096205 0.235857 0.000000
2459174.221131 -0.096186 0.235866 0.000000
2459174.221151 -0.096166 0.235874 0.000000
2459174.221170 -0.096147 0.235882 0.000000
2459174.221190 -0.096127 0.235890 0.000000
2459174.221209 -0.096108 0.235898 0.000000
2459174.221228 -0.096089 0.235906 0.000000
2459174.221248 -0.096069 0.235915 0.000000
2459174.221267 -0.096050 0.235923 0.000000
2459174.221287 -0.096030 0.235931 0.000000
2459174.221306 -0.096011 0.235939 0.000000
2459174.221326 -0.095991 0.235947 0.000000
2459174.221345 -0.095972 0.235955 0.000000
2459174.221364 -0.095953 0.235963 0.000000
2459174.221384 -0.095933 0.235972 0.000000
2459174.221403 -0.095914 0.235980 0.000000
2459174.221423 -0.095894 0.235988 0.000000
2459174.221442 -0.095875 0.235996 0.000000
2459174.221461 -0.095856 0.236004 0.000000
2459174.221481 -0.095836 0.236012 0.000000
2459174.221500 -0.095817 0.236021 0.000000
2459174.221520 -0.095797 0.236029 0.000000
2459174.221539 -0.095778 0.236037 0.000000
2459174.221559 -0.095758 0.236045 0.000000
2459174.221578 -0.095739 0.236053 0.000000
2459174.221597 -0.095720 0.236061 0.000000
2459174.221617 -0.095700 0.236070 0.000000
2459174.221636 -0.095681 0.236078 0.000000
2459174.221656 -0.095661 0.236086 0.000000
2459174.221675 -0.095642 0.236094 0.000000
2459174.221695 -0.095622 0.236102 0.000000
2459174.221714 -0.095603 0.236110 0.000000
2459174.221733 -0.095584 0.236118 0.000000
2459174.221753 -0.095564 0.236127 0.000000
2459174.221772 -0.095545 0.236135 0.000000
2459174.221792 -0.095525 0.236143 0.000000
2459174.221811 -0.095506 0.236151 0.000000
2459174.221830 -0.095487 0.236159 0.000000
2459174.221850 -0.095467 0.236167 0.000000
2459174.221869 -0.095448 0.236176 0.000000
2459174.221889 -0.095428 0.236184 0.000000
2459174.221908 -0.095409 0.236192 0.000000
2459174.221928 -0.095389 0.236200 0.000000
2459174.221947 -0.095370 0.236208 0.000000
2459174.221966 -0.095351 0.236216 0.000000
2459174.221986 -0.095331 0.236225 0.000000
2459174.222005 -0.095312 0.236233 0.000000
2459174.222025 -0.095292 0.236241 0.000000
2459174.222044 -0.095273 0.236249 0.000000
2459174.222064 -0.095253 0.236257 0.000000
2459174.222083 -0.095234 0.236265 0.000000
2459174.222102 -0.095215 0.236273 0.000000
2459174.222122 -0.095195 0.236282 0.000000
2459174.222141 -0.095176 0.236290 0.000000
2459174.222161 -0.095156 0.236298 0.000000
2459174.222180 -0.095137 0.236306 0.000000
2459174.222200 -0.095117 0.236314 0.000000
2459174.222219 -0.095098 0.236322 0.000000
2459174.222238 -0.095079 0.236331 0.000000
2459174.222258 -0.095059 0.236339 0.000000
2459174.222277 -0.095040 0.236347 0.000000
2459174.222297 -0.095020 0.236355 0.000000
2459174.222316 -0.095001 0.236363 0.000000
2459174.222335 -0.094982 0.236371 0.000000
2459174.222355 -0.094962 0.236379 0.000000
2459174.222374 -0.094943 0.236388 0.000000
2459174.222394 -0.094923 0.236396 0.000000
2459174.222413 -0.094904 0.236404 0.000000
2459174.222433 -0.094884 0.236412 0.000000
2459174.222452 -0.094865 0.236420 0.000000
2459174.222471 -0.094846 0.236428 0.000000
2459174.222491 -0.094826 0.236437 0.000000
2459174.222510 -0.094807 0.236445 0.000000
2459174.222530 -0.094787 0.236453 0.000000
2459174.222549 -0.094768 0.236461 0.000000
2459174.222569 -0.094748 0.236469 0.000000
2459174.222588 -0.094729 0.236477 0.000000
2459174.222607 -0.094710 0.236486 0.000000
2459174.222627 -0.094690 0.236494 0.000000
2459174.222646 -0.094671 0.236502 0.000000
2459174.222666 -0.094651 0.236510 0.000000
2459174.222685 -0.094632 0.236518 0.000000
2459174.222704 -0.094613 0.236526 0.000000
2459174.222724 -0.094593 0.236534 0.000000
2459174.222743 -0.094574 0.236543 0.000000
2459174.222763 -0.094554 0.236551 0.000000
2459174.222782 -0.094535 0.236559 0.000000
2459174.222802 -0.094515 0.236567 0.000000
2459174.222821 -0.094496 0.236575 0.000000
2459174.222840 -0.094477 0.236583 0.000000
2459174.222860 -0.094457 0.236592 0.000000
2459174.222879 -0.094438 0.236600 0.000000
2459174.222899 -0.094418 0.236608 0.000000
2459174.222918 -0.094399 0.236616 0.000000
2459174.222938 -0.094379 0.236624 0.000000
2459174.222957 -0.094360 0.236632 0.000000
2459174.222976 -0.094341 0.236640 0.000000
2459174.222996 -0.094321 0.236649 0.000000
2459174.223015 -0.094302 0.236657 0.000000
2459174.223035 -0.094282 0.236665 0.000000
2459174.223054 -0.094263 0.236673 0.000000
2459174.223073 -0.094244 0.236681 0.000000
2459174.223093 -0.094224 0.236689 0.000000
2459174.223112 -0.094205 0.236698 0.000000
2459174.223132 -0.094185 0.236706 0.000000
2459174.223151 -0.094166 0.236714 0.000000
2459174.223171 -0.094146 0.236722 0.000000
2459174.223190 -0.094127 0.236730 0.000000
2459174.223209 -0.094108 0.236738 0.000000
2459174.223229 -0.094088 0.236747 0.000000
2459174.223248 -0.094069 0.236755 0.000000
2459174.223268 -0.094049 0.236763 0.000000
2459174.223287 -0.094030 0.236771 0.000000
2459174.223307 -0.094010 0.236779 0.000000
2459174.223326 -0.093991 0.236787 0.000000
2459174.223345 -0.093972 0.236795 0.000000
2459174.223365 -0.093952 0.236804 0.000000
2459174.223384 -0.093933 0.236812 0.000000
2459174.223404 -0.093913 0.236820 0.000000
2459174.223423 -0.093894 0.236828 0.000000
2459174.223442 -0.093875 0.236836 0.000000
2459174.223462 -0.093855 0.236844 0.000000
2459174.223481 -0.093836 0.236853 0.000000
2459174.223501 -0.093816 0.236861 0.000000
2459174.223520 -0.093797 0.236869 0.000000
2459174.223540 -0.093777 0.236877 0.000000
2459174.223559 -0.093758 0.236885 0.000000
2459174.223578 -0.093739 0.236893 0.000000
2459174.223598 -0.093719 0.236901 0.000000
2459174.223617 -0.093700 0.236910 0.000000
2459174.223637 -0.093680 0.236918 0.000000
2459174.223656 -0.093661 0.236926 0.000000
2459174.223676 -0.093641 0.236934 0.000000
2459174.223695 -0.093622 0.236942 0.000000
2459174.223714 -0.093603 0.236950 0.000000
2459174.223734 -0.093583 0.236959 0.000000
2459174.223753 -0.093564 0.236967 0.000000
2459174.223773 -0.093544 0.236975 0.000000
2459174.223792 -0.093525 0.236983 0.000000
2459174.223812 -0.093505 0.236991 0.000000
2459174.223831 -0.093486 0.236999 0.000000
2459174.223850 -0.093467 0.237008 0.000000
2459174.223870 -0.093447 0.237016 0.000000
2459174.223889 -0.093428 0.237024 0.000000
2459174.223909 -0.093408 0.237032 0.000000
2459174.223928 -0.093389 0.237040 0.000000
2459174.223947 -0.093370 0.237048 0.000000
2459174.223967 -0.093350 0.237056 0.000000
2459174.223986 -0.093331 0.237065 0.000000
2459174.224006 -0.093311 0.237073 0.000000
2459174.224025 -0.093292 0.237081 0.000000
2459174.224045 -0.093272 0.237089 0.000000
2459174.224064 -0.093253 0.237097 0.000000
2459174.224083 -0.093234 0.237105 0.000000
2459174.224103 -0.093214 0.237114 0.000000
2459174.224122 -0.093195 0.237122 0.000000
2459174.224142 -0.093175 0.237130 0.000000
2459174.224161 -0.093156 0.237138 0.000000
2459174.224181 -0.093136 0.237146 0.000000
2459174.224200 -0.093117 0.237154 0.000000
2459174.224219 -0.093098 0.237163 0.000000
2459174.224239 -0.093078 0.237171 0.000000
2459174.224258 -0.093059 0.237179 0.000000
2459174.224278 -0.093039 0.237187 0.000000
2459174.224297 -0.093020 0.237195 0.000000
2459174.224316 -0.093001 0.237203 0.000000
2459174.224336 -0.092981 0.237211 0.000000
2459174.224355 -0.092962 0.237220 0.000000
2459174.224375 -0.092942 0.237228 0.000000
2459174.224394 -0.092923 0.237236 0.000000
2459174.224414 -0.092903 0.237244 0.000000
2459174.224433 -0.092884 0.237252 0.000000
2459174.224452 -0.092865 0.237260 0.000000
2459174.224472 -0.092845 0.237269 0.000000
2459174.224491 -0.092826 0.237277 0.000000
2459174.224511 -0.092806 0.237285 0.000000
2459174.224530 -0.092787 0.237293 0.000000
2459174.224550 -0.092767 0.237301 0.000000
2459174.224569 -0.092748 0.237309 0.000000
2459174.224588 -0.092729 0.237317 0.000000
2459174.224608 -0.092709 0.237326 0.000000
2459174.224627 -0.092690 0.237334 0.000000
2459174.224647 -0.092670 0.237342 0.000000
2459174.224666 -0.092651 0.237350 0.000000
2459174.224685 -0.092632 0.237358 0.000000
2459174.224705 -0.092612 0.237366 0.000000
2459174.224724 -0.092593 0.237375 0.000000
2459174.224744 -0.092573 0.237383 0.000000
2459174.224763 -0.092554 0.237391 0.000000
2459174.224783 -0.092534 0.237399 0.000000
2459174.224802 -0.092515 0.237407 0.000000
2459174.224821 -0.092496 0.237415 0.000000
2459174.224841 -0.092476 0.237424 0.000000
2459174.224860 -0.092457 0.237432 0.000000
2459174.224880 -0.092437 0.237440 0.000000
2459174.224899 -0.092418 0.237448 0.000000
2459174.224919 -0.092398 0.237456 0.000000
2459174.224938 -0.092379 0.237464 0.000000
2459174.224957 -0.092360 0.237472 0.000000
2459174.224977 -0.092340 0.237481 0.000000
2459174.224996 -0.092321 0.237489 0.000000
2459174.225016 -0.092301 0.237497 0.000000
2459174.225035 -0.092282 0.237505 0.000000
2459174.225055 -0.092262 0.237513 0.000000
2459174.225074 -0.092243 0.237521 0.000000
2459174.225093 -0.092224 0.237530 0.000000
2459174.225113 -0.092204 0.237538 0.000000
2459174.225132 -0.092185 0.237546 0.000000
2459174.225152 -0.092165 0.237554 0.000000
2459174.225171 -0.092146 0.237562 0.000000
2459174.225190 -0.092127 0.237570 0.000000
2459174.225210 -0.092107 0.237578 0.000000
2459174.225229 -0.092088 0.237587 0.000000
2459174.225249 -0.092068 0.237595 0.000000
2459174.225268 -0.092049 0.237603 0.000000
2459174.225288 -0.092029 0.237611 0.000000
2459174.225307 -0.092010 0.237619 0.000000
2459174.225326 -0.091991 0.237627 0.000000
2459174.225346 -0.091971 0.237636 0.000000
2459174.225365 -0.091952 0.237644 0.000000
2459174.225385 -0.091932 0.237652 0.000000
2459174.225404 -0.091913 0.237660 0.000000
2459174.225424 -0.091893 0.237668 0.000000
2459174.225443 -0.091874 0.237676 0.000000
2459174.225462 -0.091855 0.237685 0.000000
2459174.225482 -0.091835 0.237693 0.000000
2459174.225501 -0.091816 0.237701 0.000000
2459174.225521 -0.091796 0.237709 0.000000
2459174.225540 -0.091777 0.237717 0.000000
2459174.225559 -0.091758 0.237725 0.000000
2459174.225579 -0.091738 0.237733 0.000000
2459174.225598 -0.091719 0.237742 0.000000
2459174.225618 -0.091699 0.237750 0.000000
2459174.225637 -0.091680 0.237758 0.000000
2459174.225657 -0.091660 0.237766 0.000000
2459174.225676 -0.091641 0.237774 0.000000
2459174.225695 -0.091622 0.237782 0.000000
2459174.225715 -0.091602 0.237791 0.000000
2459174.225734 -0.091583 0.237799 0.000000
2459174.225754 -0.091563 0.237807 0.000000
2459174.225773 -0.091544 0.237815 0.000000
2459174.225793 -0.091524 0.237823 0.000000
2459174.225812 -0.091505 0.237831 0.000000
2459174.225831 -0.091486 0.237839 0.000000
2459174.225851 -0.091466 0.237848 0.000000
2459174.225870 -0.091447 0.237856 0.000000
2459174.225890 -0.091427 0.237864 0.000000
2459174.225909 -0.091408 0.237872 0.000000
2459174.225928 -0.091389 0.237880 0.000000
2459174.225948 -0.091369 0.237888 0.000000
2459174.225967 -0.091350 0.237897 0.000000
2459174.225987 -0.091330 0.237905 0.000000
2459174.226006 -0.091311 0.237913 0.000000
2459174.226026 -0.091291 0.237921 0.000000
2459174.226045 -0.091272 0.237929 0.000000
2459174.226064 -0.091253 0.237937 0.000000
2459174.226084 -0.091233 0.237946 0.000000
2459174.226103 -0.091214 0.237954 0.000000
2459174.226123 -0.091194 0.237962 0.000000
2459174.226142 -0.091175 0.237970 0.000000
2459174.226162 -0.091155 0.237978 0.000000
2459174.226181 -0.091136 0.237986 0.000000
2459174.226200 -0.091117 0.237994 0.000000
2459174.226220 -0.091097 0.238003 0.000000
2459174.226239 -0.091078 0.238011 0.000000
2459174.226259 -0.091058 0.238019 0.000000
2459174.226278 -0.091039 0.238027 0.000000
2459174.226298 -0.091019 0.238035 0.000000
2459174.226317 -0.091000 0.238043 0.000000
2459174.226336 -0.090981 0.238052 0.000000
2459174.226356 -0.090961 0.238060 0.000000
2459174.226375 -0.090942 0.238068 0.000000
2459174.226395 -0.090922 0.238076 0.000000
2459174.226414 -0.090903 0.238084 0.000000
2459174.226433 -0.090884 0.238092 0.000000
2459174.226453 -0.090864 0.238101 0.000000
2459174.226472 -0.090845 0.238109 0.000000
2459174.226492 -0.090825 0.238117 0.000000
2459174.226511 -0.090806 0.238125 0.000000
2459174.226531 -0.090786 0.238133 0.000000
2459174.226550 -0.090767 0.238141 0.000000
2459174.226569 -0.090748 0.238149 0.000000
2459174.226589 -0.090728 0.238158 0.000000
2459174.226608 -0.090709 0.238166 0.000000
2459174.226628 -0.090689 0.238174 0.000000
2459174.226647 -0.090670 0.238182 0.000000
2459174.226667 -0.090650 0.238190 0.000000
2459174.226686 -0.090631 0.238198 0.000000
2459174.226705 -0.090612 0.238207 0.000000
2459174.226725 -0.090592 0.238215 0.000000
2459174.226744 -0.090573 0.238223 0.000000
2459174.226764 -0.090553 0.238231 0.000000
2459174.226783 -0.090534 0.238239 0.000000
2459174.226802 -0.090515 0.238247 0.000000
2459174.226822 -0.090495 0.238255 0.000000
2459174.226841 -0.090476 0.238264 0.000000
2459174.226861 -0.090456 0.238272 0.000000
2459174.226880 -0.090437 0.238280 0.000000
2459174.226900 -0.090417 0.238288 0.000000
2459174.226919 -0.090398 0.238296 0.000000
2459174.226938 -0.090379 0.238304 0.000000
2459174.226958 -0.090359 0.238313 0.000000
2459174.226977 -0.090340 0.238321 0.000000
2459174.226997 -0.090320 0.238329 0.000000
2459174.227016 -0.090301 0.238337 0.000000
2459174.227036 -0.090281 0.238345 0.000000
2459174.227055 -0.090262 0.238353 0.000000
2459174.227074 -0.090243 0.238362 0.000000
2459174.227094 -0.090223 0.238370 0.000000
2459174.227113 -0.090204 0.238378 0.000000
2459174.227133 -0.090184 0.238386 0.000000
2459174.227152 -0.090165 0.238394 0.000000
2459174.227171 -0.090146 0.238402 0.000000
2459174.227191 -0.090126 0.238410 0.000000
2459174.227210 -0.090107 0.238419 0.000000
2459174.227230 -0.090087 0.238427 0.000000
2459174.227249 -0.090068 0.238435 0.000000
2459174.227269 -0.090048 0.238443 0.000000
2459174.227288 -0.090029 0.238451 0.000000
2459174.227307 -0.090010 0.238459 0.000000
2459174.227327 -0.089990 0.238468 0.000000
2459174.227346 -0.089971 0.238476 0.000000
2459174.227366 -0.089951 0.238484 0.000000
2459174.227385 -0.089932 0.238492 0.000000
2459174.227405 -0.089912 0.238500 0.000000
2459174.227424 -0.089893 0.238508 0.000000
2459174.227443 -0.089874 0.238516 0.000000
2459174.227463 -0.089854 0.238525 0.000000
2459174.227482 -0.089835 0.238533 0.000000
2459174.227502 -0.089815 0.238541 0.000000
2459174.227521 -0.089796 0.238549 0.000000
2459174.227540 -0.089777 0.238557 0.000000
2459174.227560 -0.089757 0.238565 0.000000
2459174.227579 -0.089738 0.238574 0.000000
2459174.227599 -0.089718 0.238582 0.000000
2459174.227618 -0.089699 0.238590 0.000000
2459174.227638 -0.089679 0.238598 0.000000
2459174.227657 -0.089660 0.238606 0.000000
2459174.227676 -0.089641 0.238614 0.000000
2459174.227696 -0.089621 0.238623 0.000000
2459174.227715 -0.089602 0.238631 0.000000
2459174.227735 -0.089582 0.238639 0.000000
2459174.227754 -0.089563 0.238647 0.000000
2459174.227774 -0.089543 0.238655 0.000000
2459174.227793 -0.089524 0.238663 0.000000
2459174.227812 -0.089505 0.238671 0.000000
2459174.227832 -0.089485 0.238680 0.000000
2459174.227851 -0.089466 0.238688 0.000000
2459174.227871 -0.089446 0.238696 0.000000
2459174.227890 -0.089427 0.238704 0.000000
2459174.227910 -0.089407 0.238712 0.000000
2459174.227929 -0.089388 0.238720 0.000000
2459174.227948 -0.089369 0.238729 0.000000
2459174.227968 -0.089349 0.238737 0.000000
2459174.227987 -0.089330 0.238745 0.000000
2459174.228007 -0.089310 0.238753 0.000000
2459174.228026 -0.089291 0.238761 0.000000
2459174.228045 -0.089272 0.238769 0.000000
2459174.228065 -0.089252 0.238777 0.000000
2459174.228084 -0.089233 0.238786 0.000000
2459174.228104 -0.089213 0.238794 0.000000
2459174.228123 -0.089194 0.238802 0.000000
2459174.228143 -0.089174 0.238810 0.000000
2459174.228162 -0.089155 0.238818 0.000000
