descriptor BJD Tc_folded phase mod 
2459174.219170 -0.098628 0.521214 0.000000
2459174.219189 -0.098608 0.521222 0.000000
2459174.219209 -0.098589 0.521230 0.000000
2459174.219228 -0.098570 0.521237 0.000000
2459174.219247 -0.098550 0.521245 0.000000
2459174.219267 -0.098531 0.521253 0.000000
2459174.219286 -0.098511 0.521261 0.000000
2459174.219306 -0.098492 0.521269 0.000000
2459174.219325 -0.098472 0.521276 0.000000
2459174.219344 -0.098453 0.521284 0.000000
2459174.219364 -0.098434 0.521292 0.000000
2459174.219383 -0.098414 0.521300 0.000000
2459174.219403 -0.098395 0.521308 0.000000
2459174.219422 -0.098375 0.521315 0.000000
2459174.219442 -0.098356 0.521323 0.000000
2459174.219461 -0.098337 0.521331 0.000000
2459174.219480 -0.098317 0.521339 0.000000
2459174.219500 -0.098298 0.521347 0.000000
2459174.219519 -0.098278 0.521354 0.000000
2459174.219539 -0.098259 0.521362 0.000000
2459174.219558 -0.098239 0.521370 0.000000
2459174.219578 -0.098220 0.521378 0.000000
2459174.219597 -0.098201 0.521386 0.000000
2459174.219616 -0.098181 0.521393 0.000000
2459174.219636 -0.098162 0.521401 0.000000
2459174.219655 -0.098142 0.521409 0.000000
2459174.219675 -0.098123 0.521417 0.000000
2459174.219694 -0.098103 0.521425 0.000000
2459174.219714 -0.098084 0.521433 0.000000
2459174.219733 -0.098065 0.521440 0.000000
2459174.219752 -0.098045 0.521448 0.000000
2459174.219772 -0.098026 0.521456 0.000000
2459174.219791 -0.098006 0.521464 0.000000
2459174.219811 -0.097987 0.521472 0.000000
2459174.219830 -0.097968 0.521479 0.000000
2459174.219849 -0.097948 0.521487 0.000000
2459174.219869 -0.097929 0.521495 0.000000
2459174.219888 -0.097909 0.521503 0.000000
2459174.219908 -0.097890 0.521511 0.000000
2459174.219927 -0.097870 0.521518 0.000000
2459174.219947 -0.097851 0.521526 0.000000
2459174.219966 -0.097832 0.521534 0.000000
2459174.219985 -0.097812 0.521542 0.000000
2459174.220005 -0.097793 0.521550 0.000000
2459174.220024 -0.097773 0.521557 0.000000
2459174.220044 -0.097754 0.521565 0.000000
2459174.220063 -0.097734 0.521573 0.000000
2459174.220083 -0.097715 0.521581 0.000000
2459174.220102 -0.097696 0.521589 0.000000
2459174.220121 -0.097676 0.521596 0.000000
2459174.220141 -0.097657 0.521604 0.000000
2459174.220160 -0.097637 0.521612 0.000000
2459174.220180 -0.097618 0.521620 0.000000
2459174.220199 -0.097598 0.521628 0.000000
2459174.220218 -0.097579 0.521635 0.000000
2459174.220238 -0.097560 0.521643 0.000000
2459174.220257 -0.097540 0.521651 0.000000
2459174.220277 -0.097521 0.521659 0.000000
2459174.220296 -0.097501 0.521667 0.000000
2459174.220316 -0.097482 0.521674 0.000000
2459174.220335 -0.097463 0.521682 0.000000
2459174.220354 -0.097443 0.521690 0.000000
2459174.220374 -0.097424 0.521698 0.000000
2459174.220393 -0.097404 0.521706 0.000000
2459174.220413 -0.097385 0.521713 0.000000
2459174.220432 -0.097365 0.521721 0.000000
2459174.220452 -0.097346 0.521729 0.000000
2459174.220471 -0.097327 0.521737 0.000000
2459174.220490 -0.097307 0.521745 0.000000
2459174.220510 -0.097288 0.521752 0.000000
2459174.220529 -0.097268 0.521760 0.000000
2459174.220549 -0.097249 0.521768 0.000000
2459174.220568 -0.097229 0.521776 0.000000
2459174.220587 -0.097210 0.521784 0.000000
2459174.220607 -0.097191 0.521791 0.000000
2459174.220626 -0.097171 0.521799 0.000000
2459174.220646 -0.097152 0.521807 0.000000
2459174.220665 -0.097132 0.521815 0.000000
2459174.220685 -0.097113 0.521823 0.000000
2459174.220704 -0.097094 0.521830 0.000000
2459174.220723 -0.097074 0.521838 0.000000
2459174.220743 -0.097055 0.521846 0.000000
2459174.220762 -0.097035 0.521854 0.000000
2459174.220782 -0.097016 0.521862 0.000000
2459174.220801 -0.096996 0.521869 0.000000
2459174.220821 -0.096977 0.521877 0.000000
2459174.220840 -0.096958 0.521885 0.000000
2459174.220859 -0.096938 0.521893 0.000000
2459174.220879 -0.096919 0.521901 0.000000
2459174.220898 -0.096899 0.521908 0.000000
2459174.220918 -0.096880 0.521916 0.000000
2459174.220937 -0.096860 0.521924 0.000000
2459174.220957 -0.096841 0.521932 0.000000
2459174.220976 -0.096822 0.521940 0.000000
2459174.220995 -0.096802 0.521947 0.000000
2459174.221015 -0.096783 0.521955 0.000000
2459174.221034 -0.096763 0.521963 0.000000
2459174.221054 -0.096744 0.521971 0.000000
2459174.221073 -0.096725 0.521979 0.000000
2459174.221092 -0.096705 0.521986 0.000000
2459174.221112 -0.096686 0.521994 0.000000
2459174.221131 -0.096666 0.522002 0.000000
2459174.221151 -0.096647 0.522010 0.000000
2459174.221170 -0.096627 0.522018 0.000000
2459174.221190 -0.096608 0.522025 0.000000
2459174.221209 -0.096589 0.522033 0.000000
2459174.221228 -0.096569 0.522041 0.000000
2459174.221248 -0.096550 0.522049 0.000000
2459174.221267 -0.096530 0.522057 0.000000
2459174.221287 -0.096511 0.522064 0.000000
2459174.221306 -0.096491 0.522072 0.000000
2459174.221326 -0.096472 0.522080 0.000000
2459174.221345 -0.096453 0.522088 0.000000
2459174.221364 -0.096433 0.522096 0.000000
2459174.221384 -0.096414 0.522104 0.000000
2459174.221403 -0.096394 0.522111 0.000000
2459174.221423 -0.096375 0.522119 0.000000
2459174.221442 -0.096356 0.522127 0.000000
2459174.221461 -0.096336 0.522135 0.000000
2459174.221481 -0.096317 0.522143 0.000000
2459174.221500 -0.096297 0.522150 0.000000
2459174.221520 -0.096278 0.522158 0.000000
2459174.221539 -0.096258 0.522166 0.000000
2459174.221559 -0.096239 0.522174 0.000000
2459174.221578 -0.096220 0.522182 0.000000
2459174.221597 -0.096200 0.522189 0.000000
2459174.221617 -0.096181 0.522197 0.000000
2459174.221636 -0.096161 0.522205 0.000000
2459174.221656 -0.096142 0.522213 0.000000
2459174.221675 -0.096122 0.522221 0.000000
2459174.221695 -0.096103 0.522228 0.000000
2459174.221714 -0.096084 0.522236 0.000000
2459174.221733 -0.096064 0.522244 0.000000
2459174.221753 -0.096045 0.522252 0.000000
2459174.221772 -0.096025 0.522260 0.000000
2459174.221792 -0.096006 0.522267 0.000000
2459174.221811 -0.095986 0.522275 0.000000
2459174.221830 -0.095967 0.522283 0.000000
2459174.221850 -0.095948 0.522291 0.000000
2459174.221869 -0.095928 0.522299 0.000000
2459174.221889 -0.095909 0.522306 0.000000
2459174.221908 -0.095889 0.522314 0.000000
2459174.221928 -0.095870 0.522322 0.000000
2459174.221947 -0.095851 0.522330 0.000000
2459174.221966 -0.095831 0.522338 0.000000
2459174.221986 -0.095812 0.522345 0.000000
2459174.222005 -0.095792 0.522353 0.000000
2459174.222025 -0.095773 0.522361 0.000000
2459174.222044 -0.095753 0.522369 0.000000
2459174.222064 -0.095734 0.522377 0.000000
2459174.222083 -0.095715 0.522384 0.000000
2459174.222102 -0.095695 0.522392 0.000000
2459174.222122 -0.095676 0.522400 0.000000
2459174.222141 -0.095656 0.522408 0.000000
2459174.222161 -0.095637 0.522416 0.000000
2459174.222180 -0.095617 0.522423 0.000000
2459174.222200 -0.095598 0.522431 0.000000
2459174.222219 -0.095579 0.522439 0.000000
2459174.222238 -0.095559 0.522447 0.000000
2459174.222258 -0.095540 0.522455 0.000000
2459174.222277 -0.095520 0.522462 0.000000
2459174.222297 -0.095501 0.522470 0.000000
2459174.222316 -0.095482 0.522478 0.000000
2459174.222335 -0.095462 0.522486 0.000000
2459174.222355 -0.095443 0.522494 0.000000
2459174.222374 -0.095423 0.522501 0.000000
2459174.222394 -0.095404 0.522509 0.000000
2459174.222413 -0.095384 0.522517 0.000000
2459174.222433 -0.095365 0.522525 0.000000
2459174.222452 -0.095346 0.522533 0.000000
2459174.222471 -0.095326 0.522540 0.000000
2459174.222491 -0.095307 0.522548 0.000000
2459174.222510 -0.095287 0.522556 0.000000
2459174.222530 -0.095268 0.522564 0.000000
2459174.222549 -0.095248 0.522572 0.000000
2459174.222569 -0.095229 0.522579 0.000000
2459174.222588 -0.095210 0.522587 0.000000
2459174.222607 -0.095190 0.522595 0.000000
2459174.222627 -0.095171 0.522603 0.000000
2459174.222646 -0.095151 0.522611 0.000000
2459174.222666 -0.095132 0.522618 0.000000
2459174.222685 -0.095113 0.522626 0.000000
2459174.222704 -0.095093 0.522634 0.000000
2459174.222724 -0.095074 0.522642 0.000000
2459174.222743 -0.095054 0.522650 0.000000
2459174.222763 -0.095035 0.522657 0.000000
2459174.222782 -0.095015 0.522665 0.000000
2459174.222802 -0.094996 0.522673 0.000000
2459174.222821 -0.094977 0.522681 0.000000
2459174.222840 -0.094957 0.522689 0.000000
2459174.222860 -0.094938 0.522696 0.000000
2459174.222879 -0.094918 0.522704 0.000000
2459174.222899 -0.094899 0.522712 0.000000
2459174.222918 -0.094879 0.522720 0.000000
2459174.222938 -0.094860 0.522728 0.000000
2459174.222957 -0.094841 0.522735 0.000000
2459174.222976 -0.094821 0.522743 0.000000
2459174.222996 -0.094802 0.522751 0.000000
2459174.223015 -0.094782 0.522759 0.000000
2459174.223035 -0.094763 0.522767 0.000000
2459174.223054 -0.094743 0.522774 0.000000
2459174.223073 -0.094724 0.522782 0.000000
2459174.223093 -0.094705 0.522790 0.000000
2459174.223112 -0.094685 0.522798 0.000000
2459174.223132 -0.094666 0.522806 0.000000
2459174.223151 -0.094646 0.522814 0.000000
2459174.223171 -0.094627 0.522821 0.000000
2459174.223190 -0.094608 0.522829 0.000000
2459174.223209 -0.094588 0.522837 0.000000
2459174.223229 -0.094569 0.522845 0.000000
2459174.223248 -0.094549 0.522853 0.000000
2459174.223268 -0.094530 0.522860 0.000000
2459174.223287 -0.094510 0.522868 0.000000
2459174.223307 -0.094491 0.522876 0.000000
2459174.223326 -0.094472 0.522884 0.000000
2459174.223345 -0.094452 0.522892 0.000000
2459174.223365 -0.094433 0.522899 0.000000
2459174.223384 -0.094413 0.522907 0.000000
2459174.223404 -0.094394 0.522915 0.000000
2459174.223423 -0.094374 0.522923 0.000000
2459174.223442 -0.094355 0.522931 0.000000
2459174.223462 -0.094336 0.522938 0.000000
2459174.223481 -0.094316 0.522946 0.000000
2459174.223501 -0.094297 0.522954 0.000000
2459174.223520 -0.094277 0.522962 0.000000
2459174.223540 -0.094258 0.522970 0.000000
2459174.223559 -0.094239 0.522977 0.000000
2459174.223578 -0.094219 0.522985 0.000000
2459174.223598 -0.094200 0.522993 0.000000
2459174.223617 -0.094180 0.523001 0.000000
2459174.223637 -0.094161 0.523009 0.000000
2459174.223656 -0.094141 0.523016 0.000000
2459174.223676 -0.094122 0.523024 0.000000
2459174.223695 -0.094103 0.523032 0.000000
2459174.223714 -0.094083 0.523040 0.000000
2459174.223734 -0.094064 0.523048 0.000000
2459174.223753 -0.094044 0.523055 0.000000
2459174.223773 -0.094025 0.523063 0.000000
2459174.223792 -0.094005 0.523071 0.000000
2459174.223812 -0.093986 0.523079 0.000000
2459174.223831 -0.093967 0.523087 0.000000
2459174.223850 -0.093947 0.523094 0.000000
2459174.223870 -0.093928 0.523102 0.000000
2459174.223889 -0.093908 0.523110 0.000000
2459174.223909 -0.093889 0.523118 0.000000
2459174.223928 -0.093870 0.523126 0.000000
2459174.223947 -0.093850 0.523133 0.000000
2459174.223967 -0.093831 0.523141 0.000000
2459174.223986 -0.093811 0.523149 0.000000
2459174.224006 -0.093792 0.523157 0.000000
2459174.224025 -0.093772 0.523165 0.000000
2459174.224045 -0.093753 0.523172 0.000000
2459174.224064 -0.093734 0.523180 0.000000
2459174.224083 -0.093714 0.523188 0.000000
2459174.224103 -0.093695 0.523196 0.000000
2459174.224122 -0.093675 0.523204 0.000000
2459174.224142 -0.093656 0.523211 0.000000
2459174.224161 -0.093636 0.523219 0.000000
2459174.224181 -0.093617 0.523227 0.000000
2459174.224200 -0.093598 0.523235 0.000000
2459174.224219 -0.093578 0.523243 0.000000
2459174.224239 -0.093559 0.523250 0.000000
2459174.224258 -0.093539 0.523258 0.000000
2459174.224278 -0.093520 0.523266 0.000000
2459174.224297 -0.093500 0.523274 0.000000
2459174.224316 -0.093481 0.523282 0.000000
2459174.224336 -0.093462 0.523289 0.000000
2459174.224355 -0.093442 0.523297 0.000000
2459174.224375 -0.093423 0.523305 0.000000
2459174.224394 -0.093403 0.523313 0.000000
2459174.224414 -0.093384 0.523321 0.000000
2459174.224433 -0.093365 0.523328 0.000000
2459174.224452 -0.093345 0.523336 0.000000
2459174.224472 -0.093326 0.523344 0.000000
2459174.224491 -0.093306 0.523352 0.000000
2459174.224511 -0.093287 0.523360 0.000000
2459174.224530 -0.093267 0.523367 0.000000
2459174.224550 -0.093248 0.523375 0.000000
2459174.224569 -0.093229 0.523383 0.000000
2459174.224588 -0.093209 0.523391 0.000000
2459174.224608 -0.093190 0.523399 0.000000
2459174.224627 -0.093170 0.523406 0.000000
2459174.224647 -0.093151 0.523414 0.000000
2459174.224666 -0.093131 0.523422 0.000000
2459174.224685 -0.093112 0.523430 0.000000
2459174.224705 -0.093093 0.523438 0.000000
2459174.224724 -0.093073 0.523445 0.000000
2459174.224744 -0.093054 0.523453 0.000000
2459174.224763 -0.093034 0.523461 0.000000
2459174.224783 -0.093015 0.523469 0.000000
2459174.224802 -0.092996 0.523477 0.000000
2459174.224821 -0.092976 0.523484 0.000000
2459174.224841 -0.092957 0.523492 0.000000
2459174.224860 -0.092937 0.523500 0.000000
2459174.224880 -0.092918 0.523508 0.000000
2459174.224899 -0.092898 0.523516 0.000000
2459174.224919 -0.092879 0.523524 0.000000
2459174.224938 -0.092860 0.523531 0.000000
2459174.224957 -0.092840 0.523539 0.000000
2459174.224977 -0.092821 0.523547 0.000000
2459174.224996 -0.092801 0.523555 0.000000
2459174.225016 -0.092782 0.523563 0.000000
2459174.225035 -0.092762 0.523570 0.000000
2459174.225055 -0.092743 0.523578 0.000000
2459174.225074 -0.092724 0.523586 0.000000
2459174.225093 -0.092704 0.523594 0.000000
2459174.225113 -0.092685 0.523602 0.000000
2459174.225132 -0.092665 0.523609 0.000000
2459174.225152 -0.092646 0.523617 0.000000
2459174.225171 -0.092627 0.523625 0.000000
2459174.225190 -0.092607 0.523633 0.000000
2459174.225210 -0.092588 0.523641 0.000000
2459174.225229 -0.092568 0.523648 0.000000
2459174.225249 -0.092549 0.523656 0.000000
2459174.225268 -0.092529 0.523664 0.000000
2459174.225288 -0.092510 0.523672 0.000000
2459174.225307 -0.092491 0.523680 0.000000
2459174.225326 -0.092471 0.523687 0.000000
2459174.225346 -0.092452 0.523695 0.000000
2459174.225365 -0.092432 0.523703 0.000000
2459174.225385 -0.092413 0.523711 0.000000
2459174.225404 -0.092393 0.523719 0.000000
2459174.225424 -0.092374 0.523726 0.000000
2459174.225443 -0.092355 0.523734 0.000000
2459174.225462 -0.092335 0.523742 0.000000
2459174.225482 -0.092316 0.523750 0.000000
2459174.225501 -0.092296 0.523758 0.000000
2459174.225521 -0.092277 0.523765 0.000000
2459174.225540 -0.092258 0.523773 0.000000
2459174.225559 -0.092238 0.523781 0.000000
2459174.225579 -0.092219 0.523789 0.000000
2459174.225598 -0.092199 0.523797 0.000000
2459174.225618 -0.092180 0.523804 0.000000
2459174.225637 -0.092160 0.523812 0.000000
2459174.225657 -0.092141 0.523820 0.000000
2459174.225676 -0.092122 0.523828 0.000000
2459174.225695 -0.092102 0.523836 0.000000
2459174.225715 -0.092083 0.523843 0.000000
2459174.225734 -0.092063 0.523851 0.000000
2459174.225754 -0.092044 0.523859 0.000000
2459174.225773 -0.092024 0.523867 0.000000
2459174.225793 -0.092005 0.523875 0.000000
2459174.225812 -0.091986 0.523882 0.000000
2459174.225831 -0.091966 0.523890 0.000000
2459174.225851 -0.091947 0.523898 0.000000
2459174.225870 -0.091927 0.523906 0.000000
2459174.225890 -0.091908 0.523914 0.000000
2459174.225909 -0.091888 0.523921 0.000000
2459174.225928 -0.091869 0.523929 0.000000
2459174.225948 -0.091850 0.523937 0.000000
2459174.225967 -0.091830 0.523945 0.000000
2459174.225987 -0.091811 0.523953 0.000000
2459174.226006 -0.091791 0.523960 0.000000
2459174.226026 -0.091772 0.523968 0.000000
2459174.226045 -0.091753 0.523976 0.000000
2459174.226064 -0.091733 0.523984 0.000000
2459174.226084 -0.091714 0.523992 0.000000
2459174.226103 -0.091694 0.523999 0.000000
2459174.226123 -0.091675 0.524007 0.000000
2459174.226142 -0.091655 0.524015 0.000000
2459174.226162 -0.091636 0.524023 0.000000
2459174.226181 -0.091617 0.524031 0.000000
2459174.226200 -0.091597 0.524038 0.000000
2459174.226220 -0.091578 0.524046 0.000000
2459174.226239 -0.091558 0.524054 0.000000
2459174.226259 -0.091539 0.524062 0.000000
2459174.226278 -0.091519 0.524070 0.000000
2459174.226298 -0.091500 0.524077 0.000000
2459174.226317 -0.091481 0.524085 0.000000
2459174.226336 -0.091461 0.524093 0.000000
2459174.226356 -0.091442 0.524101 0.000000
2459174.226375 -0.091422 0.524109 0.000000
2459174.226395 -0.091403 0.524116 0.000000
2459174.226414 -0.091384 0.524124 0.000000
2459174.226433 -0.091364 0.524132 0.000000
2459174.226453 -0.091345 0.524140 0.000000
2459174.226472 -0.091325 0.524148 0.000000
2459174.226492 -0.091306 0.524155 0.000000
2459174.226511 -0.091286 0.524163 0.000000
2459174.226531 -0.091267 0.524171 0.000000
2459174.226550 -0.091248 0.524179 0.000000
2459174.226569 -0.091228 0.524187 0.000000
2459174.226589 -0.091209 0.524195 0.000000
2459174.226608 -0.091189 0.524202 0.000000
2459174.226628 -0.091170 0.524210 0.000000
2459174.226647 -0.091150 0.524218 0.000000
2459174.226667 -0.091131 0.524226 0.000000
2459174.226686 -0.091112 0.524234 0.000000
2459174.226705 -0.091092 0.524241 0.000000
2459174.226725 -0.091073 0.524249 0.000000
2459174.226744 -0.091053 0.524257 0.000000
2459174.226764 -0.091034 0.524265 0.000000
2459174.226783 -0.091015 0.524273 0.000000
2459174.226802 -0.090995 0.524280 0.000000
2459174.226822 -0.090976 0.524288 0.000000
2459174.226841 -0.090956 0.524296 0.000000
2459174.226861 -0.090937 0.524304 0.000000
2459174.226880 -0.090917 0.524312 0.000000
2459174.226900 -0.090898 0.524319 0.000000
2459174.226919 -0.090879 0.524327 0.000000
2459174.226938 -0.090859 0.524335 0.000000
2459174.226958 -0.090840 0.524343 0.000000
2459174.226977 -0.090820 0.524351 0.000000
2459174.226997 -0.090801 0.524358 0.000000
2459174.227016 -0.090781 0.524366 0.000000
2459174.227036 -0.090762 0.524374 0.000000
2459174.227055 -0.090743 0.524382 0.000000
2459174.227074 -0.090723 0.524390 0.000000
2459174.227094 -0.090704 0.524397 0.000000
2459174.227113 -0.090684 0.524405 0.000000
2459174.227133 -0.090665 0.524413 0.000000
2459174.227152 -0.090645 0.524421 0.000000
2459174.227171 -0.090626 0.524429 0.000000
2459174.227191 -0.090607 0.524436 0.000000
2459174.227210 -0.090587 0.524444 0.000000
2459174.227230 -0.090568 0.524452 0.000000
2459174.227249 -0.090548 0.524460 0.000000
2459174.227269 -0.090529 0.524468 0.000000
2459174.227288 -0.090510 0.524475 0.000000
2459174.227307 -0.090490 0.524483 0.000000
2459174.227327 -0.090471 0.524491 0.000000
2459174.227346 -0.090451 0.524499 0.000000
2459174.227366 -0.090432 0.524507 0.000000
2459174.227385 -0.090412 0.524514 0.000000
2459174.227405 -0.090393 0.524522 0.000000
2459174.227424 -0.090374 0.524530 0.000000
2459174.227443 -0.090354 0.524538 0.000000
2459174.227463 -0.090335 0.524546 0.000000
2459174.227482 -0.090315 0.524553 0.000000
2459174.227502 -0.090296 0.524561 0.000000
2459174.227521 -0.090276 0.524569 0.000000
2459174.227540 -0.090257 0.524577 0.000000
2459174.227560 -0.090238 0.524585 0.000000
2459174.227579 -0.090218 0.524592 0.000000
2459174.227599 -0.090199 0.524600 0.000000
2459174.227618 -0.090179 0.524608 0.000000
2459174.227638 -0.090160 0.524616 0.000000
2459174.227657 -0.090141 0.524624 0.000000
2459174.227676 -0.090121 0.524631 0.000000
2459174.227696 -0.090102 0.524639 0.000000
2459174.227715 -0.090082 0.524647 0.000000
2459174.227735 -0.090063 0.524655 0.000000
2459174.227754 -0.090043 0.524663 0.000000
2459174.227774 -0.090024 0.524670 0.000000
2459174.227793 -0.090005 0.524678 0.000000
2459174.227812 -0.089985 0.524686 0.000000
2459174.227832 -0.089966 0.524694 0.000000
2459174.227851 -0.089946 0.524702 0.000000
2459174.227871 -0.089927 0.524709 0.000000
2459174.227890 -0.089907 0.524717 0.000000
2459174.227910 -0.089888 0.524725 0.000000
2459174.227929 -0.089869 0.524733 0.000000
2459174.227948 -0.089849 0.524741 0.000000
2459174.227968 -0.089830 0.524748 0.000000
2459174.227987 -0.089810 0.524756 0.000000
2459174.228007 -0.089791 0.524764 0.000000
2459174.228026 -0.089772 0.524772 0.000000
2459174.228045 -0.089752 0.524780 0.000000
2459174.228065 -0.089733 0.524787 0.000000
2459174.228084 -0.089713 0.524795 0.000000
2459174.228104 -0.089694 0.524803 0.000000
2459174.228123 -0.089674 0.524811 0.000000
2459174.228143 -0.089655 0.524819 0.000000
2459174.228162 -0.089636 0.524826 0.000000
