descriptor BJD Tc_folded phase mod 
2459174.219170 -0.098539 0.214106 0.000000
2459174.219189 -0.098520 0.214114 0.000000
2459174.219209 -0.098500 0.214122 0.000000
2459174.219228 -0.098481 0.214130 0.000000
2459174.219247 -0.098461 0.214138 0.000000
2459174.219267 -0.098442 0.214146 0.000000
2459174.219286 -0.098423 0.214154 0.000000
2459174.219306 -0.098403 0.214162 0.000000
2459174.219325 -0.098384 0.214170 0.000000
2459174.219344 -0.098364 0.214178 0.000000
2459174.219364 -0.098345 0.214186 0.000000
2459174.219383 -0.098325 0.214194 0.000000
2459174.219403 -0.098306 0.214202 0.000000
2459174.219422 -0.098287 0.214210 0.000000
2459174.219442 -0.098267 0.214218 0.000000
2459174.219461 -0.098248 0.214226 0.000000
2459174.219480 -0.098228 0.214234 0.000000
2459174.219500 -0.098209 0.214242 0.000000
2459174.219519 -0.098190 0.214250 0.000000
2459174.219539 -0.098170 0.214258 0.000000
2459174.219558 -0.098151 0.214266 0.000000
2459174.219578 -0.098131 0.214274 0.000000
2459174.219597 -0.098112 0.214282 0.000000
2459174.219616 -0.098092 0.214290 0.000000
2459174.219636 -0.098073 0.214298 0.000000
2459174.219655 -0.098054 0.214306 0.000000
2459174.219675 -0.098034 0.214314 0.000000
2459174.219694 -0.098015 0.214322 0.000000
2459174.219714 -0.097995 0.214330 0.000000
2459174.219733 -0.097976 0.214338 0.000000
2459174.219752 -0.097956 0.214346 0.000000
2459174.219772 -0.097937 0.214354 0.000000
2459174.219791 -0.097918 0.214362 0.000000
2459174.219811 -0.097898 0.214370 0.000000
2459174.219830 -0.097879 0.214378 0.000000
2459174.219849 -0.097859 0.214386 0.000000
2459174.219869 -0.097840 0.214394 0.000000
2459174.219888 -0.097821 0.214402 0.000000
2459174.219908 -0.097801 0.214409 0.000000
2459174.219927 -0.097782 0.214417 0.000000
2459174.219947 -0.097762 0.214425 0.000000
2459174.219966 -0.097743 0.214433 0.000000
2459174.219985 -0.097723 0.214441 0.000000
2459174.220005 -0.097704 0.214449 0.000000
2459174.220024 -0.097685 0.214457 0.000000
2459174.220044 -0.097665 0.214465 0.000000
2459174.220063 -0.097646 0.214473 0.000000
2459174.220083 -0.097626 0.214481 0.000000
2459174.220102 -0.097607 0.214489 0.000000
2459174.220121 -0.097587 0.214497 0.000000
2459174.220141 -0.097568 0.214505 0.000000
2459174.220160 -0.097549 0.214513 0.000000
2459174.220180 -0.097529 0.214521 0.000000
2459174.220199 -0.097510 0.214529 0.000000
2459174.220218 -0.097490 0.214537 0.000000
2459174.220238 -0.097471 0.214545 0.000000
2459174.220257 -0.097451 0.214553 0.000000
2459174.220277 -0.097432 0.214561 0.000000
2459174.220296 -0.097413 0.214569 0.000000
2459174.220316 -0.097393 0.214577 0.000000
2459174.220335 -0.097374 0.214585 0.000000
2459174.220354 -0.097354 0.214593 0.000000
2459174.220374 -0.097335 0.214601 0.000000
2459174.220393 -0.097316 0.214609 0.000000
2459174.220413 -0.097296 0.214617 0.000000
2459174.220432 -0.097277 0.214625 0.000000
2459174.220452 -0.097257 0.214633 0.000000
2459174.220471 -0.097238 0.214641 0.000000
2459174.220490 -0.097218 0.214649 0.000000
2459174.220510 -0.097199 0.214657 0.000000
2459174.220529 -0.097180 0.214665 0.000000
2459174.220549 -0.097160 0.214673 0.000000
2459174.220568 -0.097141 0.214681 0.000000
2459174.220587 -0.097121 0.214689 0.000000
2459174.220607 -0.097102 0.214697 0.000000
2459174.220626 -0.097082 0.214705 0.000000
2459174.220646 -0.097063 0.214713 0.000000
2459174.220665 -0.097044 0.214721 0.000000
2459174.220685 -0.097024 0.214729 0.000000
2459174.220704 -0.097005 0.214737 0.000000
2459174.220723 -0.096985 0.214745 0.000000
2459174.220743 -0.096966 0.214753 0.000000
2459174.220762 -0.096947 0.214761 0.000000
2459174.220782 -0.096927 0.214769 0.000000
2459174.220801 -0.096908 0.214777 0.000000
2459174.220821 -0.096888 0.214785 0.000000
2459174.220840 -0.096869 0.214793 0.000000
2459174.220859 -0.096849 0.214801 0.000000
2459174.220879 -0.096830 0.214809 0.000000
2459174.220898 -0.096811 0.214817 0.000000
2459174.220918 -0.096791 0.214825 0.000000
2459174.220937 -0.096772 0.214833 0.000000
2459174.220957 -0.096752 0.214841 0.000000
2459174.220976 -0.096733 0.214849 0.000000
2459174.220995 -0.096713 0.214857 0.000000
2459174.221015 -0.096694 0.214865 0.000000
2459174.221034 -0.096675 0.214873 0.000000
2459174.221054 -0.096655 0.214881 0.000000
2459174.221073 -0.096636 0.214889 0.000000
2459174.221092 -0.096616 0.214897 0.000000
2459174.221112 -0.096597 0.214905 0.000000
2459174.221131 -0.096578 0.214913 0.000000
2459174.221151 -0.096558 0.214921 0.000000
2459174.221170 -0.096539 0.214929 0.000000
2459174.221190 -0.096519 0.214937 0.000000
2459174.221209 -0.096500 0.214945 0.000000
2459174.221228 -0.096480 0.214953 0.000000
2459174.221248 -0.096461 0.214961 0.000000
2459174.221267 -0.096442 0.214969 0.000000
2459174.221287 -0.096422 0.214977 0.000000
2459174.221306 -0.096403 0.214985 0.000000
2459174.221326 -0.096383 0.214993 0.000000
2459174.221345 -0.096364 0.215001 0.000000
2459174.221364 -0.096344 0.215009 0.000000
2459174.221384 -0.096325 0.215017 0.000000
2459174.221403 -0.096306 0.215025 0.000000
2459174.221423 -0.096286 0.215033 0.000000
2459174.221442 -0.096267 0.215041 0.000000
2459174.221461 -0.096247 0.215049 0.000000
2459174.221481 -0.096228 0.215057 0.000000
2459174.221500 -0.096209 0.215065 0.000000
2459174.221520 -0.096189 0.215073 0.000000
2459174.221539 -0.096170 0.215081 0.000000
2459174.221559 -0.096150 0.215089 0.000000
2459174.221578 -0.096131 0.215097 0.000000
2459174.221597 -0.096111 0.215105 0.000000
2459174.221617 -0.096092 0.215113 0.000000
2459174.221636 -0.096073 0.215120 0.000000
2459174.221656 -0.096053 0.215128 0.000000
2459174.221675 -0.096034 0.215136 0.000000
2459174.221695 -0.096014 0.215144 0.000000
2459174.221714 -0.095995 0.215152 0.000000
2459174.221733 -0.095975 0.215160 0.000000
2459174.221753 -0.095956 0.215168 0.000000
2459174.221772 -0.095937 0.215176 0.000000
2459174.221792 -0.095917 0.215184 0.000000
2459174.221811 -0.095898 0.215192 0.000000
2459174.221830 -0.095878 0.215200 0.000000
2459174.221850 -0.095859 0.215208 0.000000
2459174.221869 -0.095839 0.215216 0.000000
2459174.221889 -0.095820 0.215224 0.000000
2459174.221908 -0.095801 0.215232 0.000000
2459174.221928 -0.095781 0.215240 0.000000
2459174.221947 -0.095762 0.215248 0.000000
2459174.221966 -0.095742 0.215256 0.000000
2459174.221986 -0.095723 0.215264 0.000000
2459174.222005 -0.095704 0.215272 0.000000
2459174.222025 -0.095684 0.215280 0.000000
2459174.222044 -0.095665 0.215288 0.000000
2459174.222064 -0.095645 0.215296 0.000000
2459174.222083 -0.095626 0.215304 0.000000
2459174.222102 -0.095606 0.215312 0.000000
2459174.222122 -0.095587 0.215320 0.000000
2459174.222141 -0.095568 0.215328 0.000000
2459174.222161 -0.095548 0.215336 0.000000
2459174.222180 -0.095529 0.215344 0.000000
2459174.222200 -0.095509 0.215352 0.000000
2459174.222219 -0.095490 0.215360 0.000000
2459174.222238 -0.095470 0.215368 0.000000
2459174.222258 -0.095451 0.215376 0.000000
2459174.222277 -0.095432 0.215384 0.000000
2459174.222297 -0.095412 0.215392 0.000000
2459174.222316 -0.095393 0.215400 0.000000
2459174.222335 -0.095373 0.215408 0.000000
2459174.222355 -0.095354 0.215416 0.000000
2459174.222374 -0.095335 0.215424 0.000000
2459174.222394 -0.095315 0.215432 0.000000
2459174.222413 -0.095296 0.215440 0.000000
2459174.222433 -0.095276 0.215448 0.000000
2459174.222452 -0.095257 0.215456 0.000000
2459174.222471 -0.095237 0.215464 0.000000
2459174.222491 -0.095218 0.215472 0.000000
2459174.222510 -0.095199 0.215480 0.000000
2459174.222530 -0.095179 0.215488 0.000000
2459174.222549 -0.095160 0.215496 0.000000
2459174.222569 -0.095140 0.215504 0.000000
2459174.222588 -0.095121 0.215512 0.000000
2459174.222607 -0.095101 0.215520 0.000000
2459174.222627 -0.095082 0.215528 0.000000
2459174.222646 -0.095063 0.215536 0.000000
2459174.222666 -0.095043 0.215544 0.000000
2459174.222685 -0.095024 0.215552 0.000000
2459174.222704 -0.095004 0.215560 0.000000
2459174.222724 -0.094985 0.215568 0.000000
2459174.222743 -0.094966 0.215576 0.000000
2459174.222763 -0.094946 0.215584 0.000000
2459174.222782 -0.094927 0.215592 0.000000
2459174.222802 -0.094907 0.215600 0.000000
2459174.222821 -0.094888 0.215608 0.000000
2459174.222840 -0.094868 0.215616 0.000000
2459174.222860 -0.094849 0.215624 0.000000
2459174.222879 -0.094830 0.215632 0.000000
2459174.222899 -0.094810 0.215640 0.000000
2459174.222918 -0.094791 0.215648 0.000000
2459174.222938 -0.094771 0.215656 0.000000
2459174.222957 -0.094752 0.215664 0.000000
2459174.222976 -0.094732 0.215672 0.000000
2459174.222996 -0.094713 0.215680 0.000000
2459174.223015 -0.094694 0.215688 0.000000
2459174.223035 -0.094674 0.215696 0.000000
2459174.223054 -0.094655 0.215704 0.000000
2459174.223073 -0.094635 0.215712 0.000000
2459174.223093 -0.094616 0.215720 0.000000
2459174.223112 -0.094596 0.215728 0.000000
2459174.223132 -0.094577 0.215736 0.000000
2459174.223151 -0.094558 0.215744 0.000000
2459174.223171 -0.094538 0.215752 0.000000
2459174.223190 -0.094519 0.215760 0.000000
2459174.223209 -0.094499 0.215768 0.000000
2459174.223229 -0.094480 0.215776 0.000000
2459174.223248 -0.094461 0.215784 0.000000
2459174.223268 -0.094441 0.215792 0.000000
2459174.223287 -0.094422 0.215800 0.000000
2459174.223307 -0.094402 0.215808 0.000000
2459174.223326 -0.094383 0.215816 0.000000
2459174.223345 -0.094363 0.215823 0.000000
2459174.223365 -0.094344 0.215831 0.000000
2459174.223384 -0.094325 0.215839 0.000000
2459174.223404 -0.094305 0.215847 0.000000
2459174.223423 -0.094286 0.215855 0.000000
2459174.223442 -0.094266 0.215863 0.000000
2459174.223462 -0.094247 0.215871 0.000000
2459174.223481 -0.094227 0.215879 0.000000
2459174.223501 -0.094208 0.215887 0.000000
2459174.223520 -0.094189 0.215895 0.000000
2459174.223540 -0.094169 0.215903 0.000000
2459174.223559 -0.094150 0.215911 0.000000
2459174.223578 -0.094130 0.215919 0.000000
2459174.223598 -0.094111 0.215927 0.000000
2459174.223617 -0.094092 0.215935 0.000000
2459174.223637 -0.094072 0.215943 0.000000
2459174.223656 -0.094053 0.215951 0.000000
2459174.223676 -0.094033 0.215959 0.000000
2459174.223695 -0.094014 0.215967 0.000000
2459174.223714 -0.093994 0.215975 0.000000
2459174.223734 -0.093975 0.215983 0.000000
2459174.223753 -0.093956 0.215991 0.000000
2459174.223773 -0.093936 0.215999 0.000000
2459174.223792 -0.093917 0.216007 0.000000
2459174.223812 -0.093897 0.216015 0.000000
2459174.223831 -0.093878 0.216023 0.000000
2459174.223850 -0.093858 0.216031 0.000000
2459174.223870 -0.093839 0.216039 0.000000
2459174.223889 -0.093820 0.216047 0.000000
2459174.223909 -0.093800 0.216055 0.000000
2459174.223928 -0.093781 0.216063 0.000000
2459174.223947 -0.093761 0.216071 0.000000
2459174.223967 -0.093742 0.216079 0.000000
2459174.223986 -0.093723 0.216087 0.000000
2459174.224006 -0.093703 0.216095 0.000000
2459174.224025 -0.093684 0.216103 0.000000
2459174.224045 -0.093664 0.216111 0.000000
2459174.224064 -0.093645 0.216119 0.000000
2459174.224083 -0.093625 0.216127 0.000000
2459174.224103 -0.093606 0.216135 0.000000
2459174.224122 -0.093587 0.216143 0.000000
2459174.224142 -0.093567 0.216151 0.000000
2459174.224161 -0.093548 0.216159 0.000000
2459174.224181 -0.093528 0.216167 0.000000
2459174.224200 -0.093509 0.216175 0.000000
2459174.224219 -0.093489 0.216183 0.000000
2459174.224239 -0.093470 0.216191 0.000000
2459174.224258 -0.093451 0.216199 0.000000
2459174.224278 -0.093431 0.216207 0.000000
2459174.224297 -0.093412 0.216215 0.000000
2459174.224316 -0.093392 0.216223 0.000000
2459174.224336 -0.093373 0.216231 0.000000
2459174.224355 -0.093353 0.216239 0.000000
2459174.224375 -0.093334 0.216247 0.000000
2459174.224394 -0.093315 0.216255 0.000000
2459174.224414 -0.093295 0.216263 0.000000
2459174.224433 -0.093276 0.216271 0.000000
2459174.224452 -0.093256 0.216279 0.000000
2459174.224472 -0.093237 0.216287 0.000000
2459174.224491 -0.093218 0.216295 0.000000
2459174.224511 -0.093198 0.216303 0.000000
2459174.224530 -0.093179 0.216311 0.000000
2459174.224550 -0.093159 0.216319 0.000000
2459174.224569 -0.093140 0.216327 0.000000
2459174.224588 -0.093120 0.216335 0.000000
2459174.224608 -0.093101 0.216343 0.000000
2459174.224627 -0.093082 0.216351 0.000000
2459174.224647 -0.093062 0.216359 0.000000
2459174.224666 -0.093043 0.216367 0.000000
2459174.224685 -0.093023 0.216375 0.000000
2459174.224705 -0.093004 0.216383 0.000000
2459174.224724 -0.092984 0.216391 0.000000
2459174.224744 -0.092965 0.216399 0.000000
2459174.224763 -0.092946 0.216407 0.000000
2459174.224783 -0.092926 0.216415 0.000000
2459174.224802 -0.092907 0.216423 0.000000
2459174.224821 -0.092887 0.216431 0.000000
2459174.224841 -0.092868 0.216439 0.000000
2459174.224860 -0.092849 0.216447 0.000000
2459174.224880 -0.092829 0.216455 0.000000
2459174.224899 -0.092810 0.216463 0.000000
2459174.224919 -0.092790 0.216471 0.000000
2459174.224938 -0.092771 0.216479 0.000000
2459174.224957 -0.092751 0.216487 0.000000
2459174.224977 -0.092732 0.216495 0.000000
2459174.224996 -0.092713 0.216503 0.000000
2459174.225016 -0.092693 0.216511 0.000000
2459174.225035 -0.092674 0.216519 0.000000
2459174.225055 -0.092654 0.216526 0.000000
2459174.225074 -0.092635 0.216534 0.000000
2459174.225093 -0.092615 0.216542 0.000000
2459174.225113 -0.092596 0.216550 0.000000
2459174.225132 -0.092577 0.216558 0.000000
2459174.225152 -0.092557 0.216566 0.000000
2459174.225171 -0.092538 0.216574 0.000000
2459174.225190 -0.092518 0.216582 0.000000
2459174.225210 -0.092499 0.216590 0.000000
2459174.225229 -0.092480 0.216598 0.000000
2459174.225249 -0.092460 0.216606 0.000000
2459174.225268 -0.092441 0.216614 0.000000
2459174.225288 -0.092421 0.216622 0.000000
2459174.225307 -0.092402 0.216630 0.000000
2459174.225326 -0.092382 0.216638 0.000000
2459174.225346 -0.092363 0.216646 0.000000
2459174.225365 -0.092344 0.216654 0.000000
2459174.225385 -0.092324 0.216662 0.000000
2459174.225404 -0.092305 0.216670 0.000000
2459174.225424 -0.092285 0.216678 0.000000
2459174.225443 -0.092266 0.216686 0.000000
2459174.225462 -0.092246 0.216694 0.000000
2459174.225482 -0.092227 0.216702 0.000000
2459174.225501 -0.092208 0.216710 0.000000
2459174.225521 -0.092188 0.216718 0.000000
2459174.225540 -0.092169 0.216726 0.000000
2459174.225559 -0.092149 0.216734 0.000000
2459174.225579 -0.092130 0.216742 0.000000
2459174.225598 -0.092111 0.216750 0.000000
2459174.225618 -0.092091 0.216758 0.000000
2459174.225637 -0.092072 0.216766 0.000000
2459174.225657 -0.092052 0.216774 0.000000
2459174.225676 -0.092033 0.216782 0.000000
2459174.225695 -0.092013 0.216790 0.000000
2459174.225715 -0.091994 0.216798 0.000000
2459174.225734 -0.091975 0.216806 0.000000
2459174.225754 -0.091955 0.216814 0.000000
2459174.225773 -0.091936 0.216822 0.000000
2459174.225793 -0.091916 0.216830 0.000000
2459174.225812 -0.091897 0.216838 0.000000
2459174.225831 -0.091877 0.216846 0.000000
2459174.225851 -0.091858 0.216854 0.000000
2459174.225870 -0.091839 0.216862 0.000000
2459174.225890 -0.091819 0.216870 0.000000
2459174.225909 -0.091800 0.216878 0.000000
2459174.225928 -0.091780 0.216886 0.000000
2459174.225948 -0.091761 0.216894 0.000000
2459174.225967 -0.091741 0.216902 0.000000
2459174.225987 -0.091722 0.216910 0.000000
2459174.226006 -0.091703 0.216918 0.000000
2459174.226026 -0.091683 0.216926 0.000000
2459174.226045 -0.091664 0.216934 0.000000
2459174.226064 -0.091644 0.216942 0.000000
2459174.226084 -0.091625 0.216950 0.000000
2459174.226103 -0.091606 0.216958 0.000000
2459174.226123 -0.091586 0.216966 0.000000
2459174.226142 -0.091567 0.216974 0.000000
2459174.226162 -0.091547 0.216982 0.000000
2459174.226181 -0.091528 0.216990 0.000000
2459174.226200 -0.091508 0.216998 0.000000
2459174.226220 -0.091489 0.217006 0.000000
2459174.226239 -0.091470 0.217014 0.000000
2459174.226259 -0.091450 0.217022 0.000000
2459174.226278 -0.091431 0.217030 0.000000
2459174.226298 -0.091411 0.217038 0.000000
2459174.226317 -0.091392 0.217046 0.000000
2459174.226336 -0.091372 0.217054 0.000000
2459174.226356 -0.091353 0.217062 0.000000
2459174.226375 -0.091334 0.217070 0.000000
2459174.226395 -0.091314 0.217078 0.000000
2459174.226414 -0.091295 0.217086 0.000000
2459174.226433 -0.091275 0.217094 0.000000
2459174.226453 -0.091256 0.217102 0.000000
2459174.226472 -0.091237 0.217110 0.000000
2459174.226492 -0.091217 0.217118 0.000000
2459174.226511 -0.091198 0.217126 0.000000
2459174.226531 -0.091178 0.217134 0.000000
2459174.226550 -0.091159 0.217142 0.000000
2459174.226569 -0.091139 0.217150 0.000000
2459174.226589 -0.091120 0.217158 0.000000
2459174.226608 -0.091101 0.217166 0.000000
2459174.226628 -0.091081 0.217174 0.000000
2459174.226647 -0.091062 0.217182 0.000000
2459174.226667 -0.091042 0.217190 0.000000
2459174.226686 -0.091023 0.217198 0.000000
2459174.226705 -0.091003 0.217206 0.000000
2459174.226725 -0.090984 0.217214 0.000000
2459174.226744 -0.090965 0.217222 0.000000
2459174.226764 -0.090945 0.217230 0.000000
2459174.226783 -0.090926 0.217237 0.000000
2459174.226802 -0.090906 0.217245 0.000000
2459174.226822 -0.090887 0.217253 0.000000
2459174.226841 -0.090868 0.217261 0.000000
2459174.226861 -0.090848 0.217269 0.000000
2459174.226880 -0.090829 0.217277 0.000000
2459174.226900 -0.090809 0.217285 0.000000
2459174.226919 -0.090790 0.217293 0.000000
2459174.226938 -0.090770 0.217301 0.000000
2459174.226958 -0.090751 0.217309 0.000000
2459174.226977 -0.090732 0.217317 0.000000
2459174.226997 -0.090712 0.217325 0.000000
2459174.227016 -0.090693 0.217333 0.000000
2459174.227036 -0.090673 0.217341 0.000000
2459174.227055 -0.090654 0.217349 0.000000
2459174.227074 -0.090634 0.217357 0.000000
2459174.227094 -0.090615 0.217365 0.000000
2459174.227113 -0.090596 0.217373 0.000000
2459174.227133 -0.090576 0.217381 0.000000
2459174.227152 -0.090557 0.217389 0.000000
2459174.227171 -0.090537 0.217397 0.000000
2459174.227191 -0.090518 0.217405 0.000000
2459174.227210 -0.090498 0.217413 0.000000
2459174.227230 -0.090479 0.217421 0.000000
2459174.227249 -0.090460 0.217429 0.000000
2459174.227269 -0.090440 0.217437 0.000000
2459174.227288 -0.090421 0.217445 0.000000
2459174.227307 -0.090401 0.217453 0.000000
2459174.227327 -0.090382 0.217461 0.000000
2459174.227346 -0.090363 0.217469 0.000000
2459174.227366 -0.090343 0.217477 0.000000
2459174.227385 -0.090324 0.217485 0.000000
2459174.227405 -0.090304 0.217493 0.000000
2459174.227424 -0.090285 0.217501 0.000000
2459174.227443 -0.090265 0.217509 0.000000
2459174.227463 -0.090246 0.217517 0.000000
2459174.227482 -0.090227 0.217525 0.000000
2459174.227502 -0.090207 0.217533 0.000000
2459174.227521 -0.090188 0.217541 0.000000
2459174.227540 -0.090168 0.217549 0.000000
2459174.227560 -0.090149 0.217557 0.000000
2459174.227579 -0.090129 0.217565 0.000000
2459174.227599 -0.090110 0.217573 0.000000
2459174.227618 -0.090091 0.217581 0.000000
2459174.227638 -0.090071 0.217589 0.000000
2459174.227657 -0.090052 0.217597 0.000000
2459174.227676 -0.090032 0.217605 0.000000
2459174.227696 -0.090013 0.217613 0.000000
2459174.227715 -0.089994 0.217621 0.000000
2459174.227735 -0.089974 0.217629 0.000000
2459174.227754 -0.089955 0.217637 0.000000
2459174.227774 -0.089935 0.217645 0.000000
2459174.227793 -0.089916 0.217653 0.000000
2459174.227812 -0.089896 0.217661 0.000000
2459174.227832 -0.089877 0.217669 0.000000
2459174.227851 -0.089858 0.217677 0.000000
2459174.227871 -0.089838 0.217685 0.000000
2459174.227890 -0.089819 0.217693 0.000000
2459174.227910 -0.089799 0.217701 0.000000
2459174.227929 -0.089780 0.217709 0.000000
2459174.227948 -0.089760 0.217717 0.000000
2459174.227968 -0.089741 0.217725 0.000000
2459174.227987 -0.089722 0.217733 0.000000
2459174.228007 -0.089702 0.217741 0.000000
2459174.228026 -0.089683 0.217749 0.000000
2459174.228045 -0.089663 0.217757 0.000000
2459174.228065 -0.089644 0.217765 0.000000
2459174.228084 -0.089625 0.217773 0.000000
2459174.228104 -0.089605 0.217781 0.000000
2459174.228123 -0.089586 0.217789 0.000000
2459174.228143 -0.089566 0.217797 0.000000
2459174.228162 -0.089547 0.217805 0.000000
