descriptor BJD Tc_folded phase mod 
2459174.219170 -0.098638 0.981018 0.000000
2459174.219189 -0.098618 0.981026 0.000000
2459174.219209 -0.098599 0.981034 0.000000
2459174.219228 -0.098579 0.981042 0.000000
2459174.219247 -0.098560 0.981050 0.000000
2459174.219267 -0.098540 0.981058 0.000000
2459174.219286 -0.098521 0.981066 0.000000
2459174.219306 -0.098502 0.981074 0.000000
2459174.219325 -0.098482 0.981082 0.000000
2459174.219344 -0.098463 0.981090 0.000000
2459174.219364 -0.098443 0.981098 0.000000
2459174.219383 -0.098424 0.981106 0.000000
2459174.219403 -0.098405 0.981114 0.000000
2459174.219422 -0.098385 0.981122 0.000000
2459174.219442 -0.098366 0.981130 0.000000
2459174.219461 -0.098346 0.981138 0.000000
2459174.219480 -0.098327 0.981146 0.000000
2459174.219500 -0.098307 0.981154 0.000000
2459174.219519 -0.098288 0.981162 0.000000
2459174.219539 -0.098269 0.981170 0.000000
2459174.219558 -0.098249 0.981178 0.000000
2459174.219578 -0.098230 0.981186 0.000000
2459174.219597 -0.098210 0.981194 0.000000
2459174.219616 -0.098191 0.981202 0.000000
2459174.219636 -0.098171 0.981210 0.000000
2459174.219655 -0.098152 0.981218 0.000000
2459174.219675 -0.098133 0.981226 0.000000
2459174.219694 -0.098113 0.981235 0.000000
2459174.219714 -0.098094 0.981243 0.000000
2459174.219733 -0.098074 0.981251 0.000000
2459174.219752 -0.098055 0.981259 0.000000
2459174.219772 -0.098035 0.981267 0.000000
2459174.219791 -0.098016 0.981275 0.000000
2459174.219811 -0.097997 0.981283 0.000000
2459174.219830 -0.097977 0.981291 0.000000
2459174.219849 -0.097958 0.981299 0.000000
2459174.219869 -0.097938 0.981307 0.000000
2459174.219888 -0.097919 0.981315 0.000000
2459174.219908 -0.097900 0.981323 0.000000
2459174.219927 -0.097880 0.981331 0.000000
2459174.219947 -0.097861 0.981339 0.000000
2459174.219966 -0.097841 0.981347 0.000000
2459174.219985 -0.097822 0.981355 0.000000
2459174.220005 -0.097802 0.981363 0.000000
2459174.220024 -0.097783 0.981371 0.000000
2459174.220044 -0.097764 0.981379 0.000000
2459174.220063 -0.097744 0.981387 0.000000
2459174.220083 -0.097725 0.981395 0.000000
2459174.220102 -0.097705 0.981403 0.000000
2459174.220121 -0.097686 0.981411 0.000000
2459174.220141 -0.097666 0.981419 0.000000
2459174.220160 -0.097647 0.981427 0.000000
2459174.220180 -0.097628 0.981435 0.000000
2459174.220199 -0.097608 0.981443 0.000000
2459174.220218 -0.097589 0.981451 0.000000
2459174.220238 -0.097569 0.981459 0.000000
2459174.220257 -0.097550 0.981467 0.000000
2459174.220277 -0.097531 0.981475 0.000000
2459174.220296 -0.097511 0.981483 0.000000
2459174.220316 -0.097492 0.981491 0.000000
2459174.220335 -0.097472 0.981499 0.000000
2459174.220354 -0.097453 0.981507 0.000000
2459174.220374 -0.097433 0.981515 0.000000
2459174.220393 -0.097414 0.981523 0.000000
2459174.220413 -0.097395 0.981531 0.000000
2459174.220432 -0.097375 0.981539 0.000000
2459174.220452 -0.097356 0.981547 0.000000
2459174.220471 -0.097336 0.981555 0.000000
2459174.220490 -0.097317 0.981563 0.000000
2459174.220510 -0.097297 0.981571 0.000000
2459174.220529 -0.097278 0.981579 0.000000
2459174.220549 -0.097259 0.981587 0.000000
2459174.220568 -0.097239 0.981595 0.000000
2459174.220587 -0.097220 0.981603 0.000000
2459174.220607 -0.097200 0.981611 0.000000
2459174.220626 -0.097181 0.981619 0.000000
2459174.220646 -0.097162 0.981627 0.000000
2459174.220665 -0.097142 0.981635 0.000000
2459174.220685 -0.097123 0.981643 0.000000
2459174.220704 -0.097103 0.981651 0.000000
2459174.220723 -0.097084 0.981659 0.000000
2459174.220743 -0.097064 0.981667 0.000000
2459174.220762 -0.097045 0.981675 0.000000
2459174.220782 -0.097026 0.981683 0.000000
2459174.220801 -0.097006 0.981691 0.000000
2459174.220821 -0.096987 0.981699 0.000000
2459174.220840 -0.096967 0.981707 0.000000
2459174.220859 -0.096948 0.981715 0.000000
2459174.220879 -0.096928 0.981723 0.000000
2459174.220898 -0.096909 0.981731 0.000000
2459174.220918 -0.096890 0.981739 0.000000
2459174.220937 -0.096870 0.981747 0.000000
2459174.220957 -0.096851 0.981755 0.000000
2459174.220976 -0.096831 0.981763 0.000000
2459174.220995 -0.096812 0.981771 0.000000
2459174.221015 -0.096793 0.981779 0.000000
2459174.221034 -0.096773 0.981787 0.000000
2459174.221054 -0.096754 0.981795 0.000000
2459174.221073 -0.096734 0.981803 0.000000
2459174.221092 -0.096715 0.981811 0.000000
2459174.221112 -0.096695 0.981819 0.000000
2459174.221131 -0.096676 0.981827 0.000000
2459174.221151 -0.096657 0.981835 0.000000
2459174.221170 -0.096637 0.981843 0.000000
2459174.221190 -0.096618 0.981851 0.000000
2459174.221209 -0.096598 0.981860 0.000000
2459174.221228 -0.096579 0.981868 0.000000
2459174.221248 -0.096559 0.981876 0.000000
2459174.221267 -0.096540 0.981884 0.000000
2459174.221287 -0.096521 0.981892 0.000000
2459174.221306 -0.096501 0.981900 0.000000
2459174.221326 -0.096482 0.981908 0.000000
2459174.221345 -0.096462 0.981916 0.000000
2459174.221364 -0.096443 0.981924 0.000000
2459174.221384 -0.096423 0.981932 0.000000
2459174.221403 -0.096404 0.981940 0.000000
2459174.221423 -0.096385 0.981948 0.000000
2459174.221442 -0.096365 0.981956 0.000000
2459174.221461 -0.096346 0.981964 0.000000
2459174.221481 -0.096326 0.981972 0.000000
2459174.221500 -0.096307 0.981980 0.000000
2459174.221520 -0.096288 0.981988 0.000000
2459174.221539 -0.096268 0.981996 0.000000
2459174.221559 -0.096249 0.982004 0.000000
2459174.221578 -0.096229 0.982012 0.000000
2459174.221597 -0.096210 0.982020 0.000000
2459174.221617 -0.096190 0.982028 0.000000
2459174.221636 -0.096171 0.982036 0.000000
2459174.221656 -0.096152 0.982044 0.000000
2459174.221675 -0.096132 0.982052 0.000000
2459174.221695 -0.096113 0.982060 0.000000
2459174.221714 -0.096093 0.982068 0.000000
2459174.221733 -0.096074 0.982076 0.000000
2459174.221753 -0.096054 0.982084 0.000000
2459174.221772 -0.096035 0.982092 0.000000
2459174.221792 -0.096016 0.982100 0.000000
2459174.221811 -0.095996 0.982108 0.000000
2459174.221830 -0.095977 0.982116 0.000000
2459174.221850 -0.095957 0.982124 0.000000
2459174.221869 -0.095938 0.982132 0.000000
2459174.221889 -0.095919 0.982140 0.000000
2459174.221908 -0.095899 0.982148 0.000000
2459174.221928 -0.095880 0.982156 0.000000
2459174.221947 -0.095860 0.982164 0.000000
2459174.221966 -0.095841 0.982172 0.000000
2459174.221986 -0.095821 0.982180 0.000000
2459174.222005 -0.095802 0.982188 0.000000
2459174.222025 -0.095783 0.982196 0.000000
2459174.222044 -0.095763 0.982204 0.000000
2459174.222064 -0.095744 0.982212 0.000000
2459174.222083 -0.095724 0.982220 0.000000
2459174.222102 -0.095705 0.982228 0.000000
2459174.222122 -0.095685 0.982236 0.000000
2459174.222141 -0.095666 0.982244 0.000000
2459174.222161 -0.095647 0.982252 0.000000
2459174.222180 -0.095627 0.982260 0.000000
2459174.222200 -0.095608 0.982268 0.000000
2459174.222219 -0.095588 0.982276 0.000000
2459174.222238 -0.095569 0.982284 0.000000
2459174.222258 -0.095550 0.982292 0.000000
2459174.222277 -0.095530 0.982300 0.000000
2459174.222297 -0.095511 0.982308 0.000000
2459174.222316 -0.095491 0.982316 0.000000
2459174.222335 -0.095472 0.982324 0.000000
2459174.222355 -0.095452 0.982332 0.000000
2459174.222374 -0.095433 0.982340 0.000000
2459174.222394 -0.095414 0.982348 0.000000
2459174.222413 -0.095394 0.982356 0.000000
2459174.222433 -0.095375 0.982364 0.000000
2459174.222452 -0.095355 0.982372 0.000000
2459174.222471 -0.095336 0.982380 0.000000
2459174.222491 -0.095316 0.982388 0.000000
2459174.222510 -0.095297 0.982396 0.000000
2459174.222530 -0.095278 0.982404 0.000000
2459174.222549 -0.095258 0.982412 0.000000
2459174.222569 -0.095239 0.982420 0.000000
2459174.222588 -0.095219 0.982428 0.000000
2459174.222607 -0.095200 0.982436 0.000000
2459174.222627 -0.095180 0.982444 0.000000
2459174.222646 -0.095161 0.982452 0.000000
2459174.222666 -0.095142 0.982460 0.000000
2459174.222685 -0.095122 0.982468 0.000000
2459174.222704 -0.095103 0.982476 0.000000
2459174.222724 -0.095083 0.982485 0.000000
2459174.222743 -0.095064 0.982493 0.000000
2459174.222763 -0.095045 0.982501 0.000000
2459174.222782 -0.095025 0.982509 0.000000
2459174.222802 -0.095006 0.982517 0.000000
2459174.222821 -0.094986 0.982525 0.000000
2459174.222840 -0.094967 0.982533 0.000000
2459174.222860 -0.094947 0.982541 0.000000
2459174.222879 -0.094928 0.982549 0.000000
2459174.222899 -0.094909 0.982557 0.000000
2459174.222918 -0.094889 0.982565 0.000000
2459174.222938 -0.094870 0.982573 0.000000
2459174.222957 -0.094850 0.982581 0.000000
2459174.222976 -0.094831 0.982589 0.000000
2459174.222996 -0.094811 0.982597 0.000000
2459174.223015 -0.094792 0.982605 0.000000
2459174.223035 -0.094773 0.982613 0.000000
2459174.223054 -0.094753 0.982621 0.000000
2459174.223073 -0.094734 0.982629 0.000000
2459174.223093 -0.094714 0.982637 0.000000
2459174.223112 -0.094695 0.982645 0.000000
2459174.223132 -0.094676 0.982653 0.000000
2459174.223151 -0.094656 0.982661 0.000000
2459174.223171 -0.094637 0.982669 0.000000
2459174.223190 -0.094617 0.982677 0.000000
2459174.223209 -0.094598 0.982685 0.000000
2459174.223229 -0.094578 0.982693 0.000000
2459174.223248 -0.094559 0.982701 0.000000
2459174.223268 -0.094540 0.982709 0.000000
2459174.223287 -0.094520 0.982717 0.000000
2459174.223307 -0.094501 0.982725 0.000000
2459174.223326 -0.094481 0.982733 0.000000
2459174.223345 -0.094462 0.982741 0.000000
2459174.223365 -0.094442 0.982749 0.000000
2459174.223384 -0.094423 0.982757 0.000000
2459174.223404 -0.094404 0.982765 0.000000
2459174.223423 -0.094384 0.982773 0.000000
2459174.223442 -0.094365 0.982781 0.000000
2459174.223462 -0.094345 0.982789 0.000000
2459174.223481 -0.094326 0.982797 0.000000
2459174.223501 -0.094307 0.982805 0.000000
2459174.223520 -0.094287 0.982813 0.000000
2459174.223540 -0.094268 0.982821 0.000000
2459174.223559 -0.094248 0.982829 0.000000
2459174.223578 -0.094229 0.982837 0.000000
2459174.223598 -0.094209 0.982845 0.000000
2459174.223617 -0.094190 0.982853 0.000000
2459174.223637 -0.094171 0.982861 0.000000
2459174.223656 -0.094151 0.982869 0.000000
2459174.223676 -0.094132 0.982877 0.000000
2459174.223695 -0.094112 0.982885 0.000000
2459174.223714 -0.094093 0.982893 0.000000
2459174.223734 -0.094073 0.982901 0.000000
2459174.223753 -0.094054 0.982909 0.000000
2459174.223773 -0.094035 0.982917 0.000000
2459174.223792 -0.094015 0.982925 0.000000
2459174.223812 -0.093996 0.982933 0.000000
2459174.223831 -0.093976 0.982941 0.000000
2459174.223850 -0.093957 0.982949 0.000000
2459174.223870 -0.093937 0.982957 0.000000
2459174.223889 -0.093918 0.982965 0.000000
2459174.223909 -0.093899 0.982973 0.000000
2459174.223928 -0.093879 0.982981 0.000000
2459174.223947 -0.093860 0.982989 0.000000
2459174.223967 -0.093840 0.982997 0.000000
2459174.223986 -0.093821 0.983005 0.000000
2459174.224006 -0.093802 0.983013 0.000000
2459174.224025 -0.093782 0.983021 0.000000
2459174.224045 -0.093763 0.983029 0.000000
2459174.224064 -0.093743 0.983037 0.000000
2459174.224083 -0.093724 0.983045 0.000000
2459174.224103 -0.093704 0.983053 0.000000
2459174.224122 -0.093685 0.983061 0.000000
2459174.224142 -0.093666 0.983069 0.000000
2459174.224161 -0.093646 0.983077 0.000000
2459174.224181 -0.093627 0.983085 0.000000
2459174.224200 -0.093607 0.983093 0.000000
2459174.224219 -0.093588 0.983101 0.000000
2459174.224239 -0.093568 0.983110 0.000000
2459174.224258 -0.093549 0.983118 0.000000
2459174.224278 -0.093530 0.983126 0.000000
2459174.224297 -0.093510 0.983134 0.000000
2459174.224316 -0.093491 0.983142 0.000000
2459174.224336 -0.093471 0.983150 0.000000
2459174.224355 -0.093452 0.983158 0.000000
2459174.224375 -0.093433 0.983166 0.000000
2459174.224394 -0.093413 0.983174 0.000000
2459174.224414 -0.093394 0.983182 0.000000
2459174.224433 -0.093374 0.983190 0.000000
2459174.224452 -0.093355 0.983198 0.000000
2459174.224472 -0.093335 0.983206 0.000000
2459174.224491 -0.093316 0.983214 0.000000
2459174.224511 -0.093297 0.983222 0.000000
2459174.224530 -0.093277 0.983230 0.000000
2459174.224550 -0.093258 0.983238 0.000000
2459174.224569 -0.093238 0.983246 0.000000
2459174.224588 -0.093219 0.983254 0.000000
2459174.224608 -0.093199 0.983262 0.000000
2459174.224627 -0.093180 0.983270 0.000000
2459174.224647 -0.093161 0.983278 0.000000
2459174.224666 -0.093141 0.983286 0.000000
2459174.224685 -0.093122 0.983294 0.000000
2459174.224705 -0.093102 0.983302 0.000000
2459174.224724 -0.093083 0.983310 0.000000
2459174.224744 -0.093064 0.983318 0.000000
2459174.224763 -0.093044 0.983326 0.000000
2459174.224783 -0.093025 0.983334 0.000000
2459174.224802 -0.093005 0.983342 0.000000
2459174.224821 -0.092986 0.983350 0.000000
2459174.224841 -0.092966 0.983358 0.000000
2459174.224860 -0.092947 0.983366 0.000000
2459174.224880 -0.092928 0.983374 0.000000
2459174.224899 -0.092908 0.983382 0.000000
2459174.224919 -0.092889 0.983390 0.000000
2459174.224938 -0.092869 0.983398 0.000000
2459174.224957 -0.092850 0.983406 0.000000
2459174.224977 -0.092830 0.983414 0.000000
2459174.224996 -0.092811 0.983422 0.000000
2459174.225016 -0.092792 0.983430 0.000000
2459174.225035 -0.092772 0.983438 0.000000
2459174.225055 -0.092753 0.983446 0.000000
2459174.225074 -0.092733 0.983454 0.000000
2459174.225093 -0.092714 0.983462 0.000000
2459174.225113 -0.092695 0.983470 0.000000
2459174.225132 -0.092675 0.983478 0.000000
2459174.225152 -0.092656 0.983486 0.000000
2459174.225171 -0.092636 0.983494 0.000000
2459174.225190 -0.092617 0.983502 0.000000
2459174.225210 -0.092597 0.983510 0.000000
2459174.225229 -0.092578 0.983518 0.000000
2459174.225249 -0.092559 0.983526 0.000000
2459174.225268 -0.092539 0.983534 0.000000
2459174.225288 -0.092520 0.983542 0.000000
2459174.225307 -0.092500 0.983550 0.000000
2459174.225326 -0.092481 0.983558 0.000000
2459174.225346 -0.092461 0.983566 0.000000
2459174.225365 -0.092442 0.983574 0.000000
2459174.225385 -0.092423 0.983582 0.000000
2459174.225404 -0.092403 0.983590 0.000000
2459174.225424 -0.092384 0.983598 0.000000
2459174.225443 -0.092364 0.983606 0.000000
2459174.225462 -0.092345 0.983614 0.000000
2459174.225482 -0.092325 0.983622 0.000000
2459174.225501 -0.092306 0.983630 0.000000
2459174.225521 -0.092287 0.983638 0.000000
2459174.225540 -0.092267 0.983646 0.000000
2459174.225559 -0.092248 0.983654 0.000000
2459174.225579 -0.092228 0.983662 0.000000
2459174.225598 -0.092209 0.983670 0.000000
2459174.225618 -0.092190 0.983678 0.000000
2459174.225637 -0.092170 0.983686 0.000000
2459174.225657 -0.092151 0.983694 0.000000
2459174.225676 -0.092131 0.983702 0.000000
2459174.225695 -0.092112 0.983710 0.000000
2459174.225715 -0.092092 0.983718 0.000000
2459174.225734 -0.092073 0.983726 0.000000
2459174.225754 -0.092054 0.983735 0.000000
2459174.225773 -0.092034 0.983743 0.000000
2459174.225793 -0.092015 0.983751 0.000000
2459174.225812 -0.091995 0.983759 0.000000
2459174.225831 -0.091976 0.983767 0.000000
2459174.225851 -0.091956 0.983775 0.000000
2459174.225870 -0.091937 0.983783 0.000000
2459174.225890 -0.091918 0.983791 0.000000
2459174.225909 -0.091898 0.983799 0.000000
2459174.225928 -0.091879 0.983807 0.000000
2459174.225948 -0.091859 0.983815 0.000000
2459174.225967 -0.091840 0.983823 0.000000
2459174.225987 -0.091821 0.983831 0.000000
2459174.226006 -0.091801 0.983839 0.000000
2459174.226026 -0.091782 0.983847 0.000000
2459174.226045 -0.091762 0.983855 0.000000
2459174.226064 -0.091743 0.983863 0.000000
2459174.226084 -0.091723 0.983871 0.000000
2459174.226103 -0.091704 0.983879 0.000000
2459174.226123 -0.091685 0.983887 0.000000
2459174.226142 -0.091665 0.983895 0.000000
2459174.226162 -0.091646 0.983903 0.000000
2459174.226181 -0.091626 0.983911 0.000000
2459174.226200 -0.091607 0.983919 0.000000
2459174.226220 -0.091587 0.983927 0.000000
2459174.226239 -0.091568 0.983935 0.000000
2459174.226259 -0.091549 0.983943 0.000000
2459174.226278 -0.091529 0.983951 0.000000
2459174.226298 -0.091510 0.983959 0.000000
2459174.226317 -0.091490 0.983967 0.000000
2459174.226336 -0.091471 0.983975 0.000000
2459174.226356 -0.091452 0.983983 0.000000
2459174.226375 -0.091432 0.983991 0.000000
2459174.226395 -0.091413 0.983999 0.000000
2459174.226414 -0.091393 0.984007 0.000000
2459174.226433 -0.091374 0.984015 0.000000
2459174.226453 -0.091354 0.984023 0.000000
2459174.226472 -0.091335 0.984031 0.000000
2459174.226492 -0.091316 0.984039 0.000000
2459174.226511 -0.091296 0.984047 0.000000
2459174.226531 -0.091277 0.984055 0.000000
2459174.226550 -0.091257 0.984063 0.000000
2459174.226569 -0.091238 0.984071 0.000000
2459174.226589 -0.091218 0.984079 0.000000
2459174.226608 -0.091199 0.984087 0.000000
2459174.226628 -0.091180 0.984095 0.000000
2459174.226647 -0.091160 0.984103 0.000000
2459174.226667 -0.091141 0.984111 0.000000
2459174.226686 -0.091121 0.984119 0.000000
2459174.226705 -0.091102 0.984127 0.000000
2459174.226725 -0.091082 0.984135 0.000000
2459174.226744 -0.091063 0.984143 0.000000
2459174.226764 -0.091044 0.984151 0.000000
2459174.226783 -0.091024 0.984159 0.000000
2459174.226802 -0.091005 0.984167 0.000000
2459174.226822 -0.090985 0.984175 0.000000
2459174.226841 -0.090966 0.984183 0.000000
2459174.226861 -0.090947 0.984191 0.000000
2459174.226880 -0.090927 0.984199 0.000000
2459174.226900 -0.090908 0.984207 0.000000
2459174.226919 -0.090888 0.984215 0.000000
2459174.226938 -0.090869 0.984223 0.000000
2459174.226958 -0.090849 0.984231 0.000000
2459174.226977 -0.090830 0.984239 0.000000
2459174.226997 -0.090811 0.984247 0.000000
2459174.227016 -0.090791 0.984255 0.000000
2459174.227036 -0.090772 0.984263 0.000000
2459174.227055 -0.090752 0.984271 0.000000
2459174.227074 -0.090733 0.984279 0.000000
2459174.227094 -0.090713 0.984287 0.000000
2459174.227113 -0.090694 0.984295 0.000000
2459174.227133 -0.090675 0.984303 0.000000
2459174.227152 -0.090655 0.984311 0.000000
2459174.227171 -0.090636 0.984319 0.000000
2459174.227191 -0.090616 0.984327 0.000000
2459174.227210 -0.090597 0.984335 0.000000
2459174.227230 -0.090578 0.984343 0.000000
2459174.227249 -0.090558 0.984351 0.000000
2459174.227269 -0.090539 0.984359 0.000000
2459174.227288 -0.090519 0.984368 0.000000
2459174.227307 -0.090500 0.984376 0.000000
2459174.227327 -0.090480 0.984384 0.000000
2459174.227346 -0.090461 0.984392 0.000000
2459174.227366 -0.090442 0.984400 0.000000
2459174.227385 -0.090422 0.984408 0.000000
2459174.227405 -0.090403 0.984416 0.000000
2459174.227424 -0.090383 0.984424 0.000000
2459174.227443 -0.090364 0.984432 0.000000
2459174.227463 -0.090344 0.984440 0.000000
2459174.227482 -0.090325 0.984448 0.000000
2459174.227502 -0.090306 0.984456 0.000000
2459174.227521 -0.090286 0.984464 0.000000
2459174.227540 -0.090267 0.984472 0.000000
2459174.227560 -0.090247 0.984480 0.000000
2459174.227579 -0.090228 0.984488 0.000000
2459174.227599 -0.090209 0.984496 0.000000
2459174.227618 -0.090189 0.984504 0.000000
2459174.227638 -0.090170 0.984512 0.000000
2459174.227657 -0.090150 0.984520 0.000000
2459174.227676 -0.090131 0.984528 0.000000
2459174.227696 -0.090111 0.984536 0.000000
2459174.227715 -0.090092 0.984544 0.000000
2459174.227735 -0.090073 0.984552 0.000000
2459174.227754 -0.090053 0.984560 0.000000
2459174.227774 -0.090034 0.984568 0.000000
2459174.227793 -0.090014 0.984576 0.000000
2459174.227812 -0.089995 0.984584 0.000000
2459174.227832 -0.089975 0.984592 0.000000
2459174.227851 -0.089956 0.984600 0.000000
2459174.227871 -0.089937 0.984608 0.000000
2459174.227890 -0.089917 0.984616 0.000000
2459174.227910 -0.089898 0.984624 0.000000
2459174.227929 -0.089878 0.984632 0.000000
2459174.227948 -0.089859 0.984640 0.000000
2459174.227968 -0.089839 0.984648 0.000000
2459174.227987 -0.089820 0.984656 0.000000
2459174.228007 -0.089801 0.984664 0.000000
2459174.228026 -0.089781 0.984672 0.000000
2459174.228045 -0.089762 0.984680 0.000000
2459174.228065 -0.089742 0.984688 0.000000
2459174.228084 -0.089723 0.984696 0.000000
2459174.228104 -0.089704 0.984704 0.000000
2459174.228123 -0.089684 0.984712 0.000000
2459174.228143 -0.089665 0.984720 0.000000
2459174.228162 -0.089645 0.984728 0.000000
