descriptor BJD Tc_folded phase mod 
2459174.219170 -0.098532 0.485400 0.000000
2459174.219189 -0.098512 0.485408 0.000000
2459174.219209 -0.098493 0.485417 0.000000
2459174.219228 -0.098473 0.485425 0.000000
2459174.219247 -0.098454 0.485434 0.000000
2459174.219267 -0.098434 0.485442 0.000000
2459174.219286 -0.098415 0.485451 0.000000
2459174.219306 -0.098396 0.485459 0.000000
2459174.219325 -0.098376 0.485468 0.000000
2459174.219344 -0.098357 0.485476 0.000000
2459174.219364 -0.098337 0.485485 0.000000
2459174.219383 -0.098318 0.485493 0.000000
2459174.219403 -0.098299 0.485502 0.000000
2459174.219422 -0.098279 0.485510 0.000000
2459174.219442 -0.098260 0.485519 0.000000
2459174.219461 -0.098240 0.485527 0.000000
2459174.219480 -0.098221 0.485536 0.000000
2459174.219500 -0.098201 0.485544 0.000000
2459174.219519 -0.098182 0.485553 0.000000
2459174.219539 -0.098163 0.485561 0.000000
2459174.219558 -0.098143 0.485570 0.000000
2459174.219578 -0.098124 0.485578 0.000000
2459174.219597 -0.098104 0.485587 0.000000
2459174.219616 -0.098085 0.485595 0.000000
2459174.219636 -0.098065 0.485604 0.000000
2459174.219655 -0.098046 0.485612 0.000000
2459174.219675 -0.098027 0.485621 0.000000
2459174.219694 -0.098007 0.485629 0.000000
2459174.219714 -0.097988 0.485638 0.000000
2459174.219733 -0.097968 0.485647 0.000000
2459174.219752 -0.097949 0.485655 0.000000
2459174.219772 -0.097929 0.485664 0.000000
2459174.219791 -0.097910 0.485672 0.000000
2459174.219811 -0.097891 0.485681 0.000000
2459174.219830 -0.097871 0.485689 0.000000
2459174.219849 -0.097852 0.485698 0.000000
2459174.219869 -0.097832 0.485706 0.000000
2459174.219888 -0.097813 0.485715 0.000000
2459174.219908 -0.097794 0.485723 0.000000
2459174.219927 -0.097774 0.485732 0.000000
2459174.219947 -0.097755 0.485740 0.000000
2459174.219966 -0.097735 0.485749 0.000000
2459174.219985 -0.097716 0.485757 0.000000
2459174.220005 -0.097696 0.485766 0.000000
2459174.220024 -0.097677 0.485774 0.000000
2459174.220044 -0.097658 0.485783 0.000000
2459174.220063 -0.097638 0.485791 0.000000
2459174.220083 -0.097619 0.485800 0.000000
2459174.220102 -0.097599 0.485808 0.000000
2459174.220121 -0.097580 0.485817 0.000000
2459174.220141 -0.097560 0.485825 0.000000
2459174.220160 -0.097541 0.485834 0.000000
2459174.220180 -0.097522 0.485842 0.000000
2459174.220199 -0.097502 0.485851 0.000000
2459174.220218 -0.097483 0.485859 0.000000
2459174.220238 -0.097463 0.485868 0.000000
2459174.220257 -0.097444 0.485876 0.000000
2459174.220277 -0.097425 0.485885 0.000000
2459174.220296 -0.097405 0.485893 0.000000
2459174.220316 -0.097386 0.485902 0.000000
2459174.220335 -0.097366 0.485910 0.000000
2459174.220354 -0.097347 0.485919 0.000000
2459174.220374 -0.097327 0.485927 0.000000
2459174.220393 -0.097308 0.485936 0.000000
2459174.220413 -0.097289 0.485944 0.000000
2459174.220432 -0.097269 0.485953 0.000000
2459174.220452 -0.097250 0.485961 0.000000
2459174.220471 -0.097230 0.485970 0.000000
2459174.220490 -0.097211 0.485979 0.000000
2459174.220510 -0.097191 0.485987 0.000000
2459174.220529 -0.097172 0.485996 0.000000
2459174.220549 -0.097153 0.486004 0.000000
2459174.220568 -0.097133 0.486013 0.000000
2459174.220587 -0.097114 0.486021 0.000000
2459174.220607 -0.097094 0.486030 0.000000
2459174.220626 -0.097075 0.486038 0.000000
2459174.220646 -0.097056 0.486047 0.000000
2459174.220665 -0.097036 0.486055 0.000000
2459174.220685 -0.097017 0.486064 0.000000
2459174.220704 -0.096997 0.486072 0.000000
2459174.220723 -0.096978 0.486081 0.000000
2459174.220743 -0.096958 0.486089 0.000000
2459174.220762 -0.096939 0.486098 0.000000
2459174.220782 -0.096920 0.486106 0.000000
2459174.220801 -0.096900 0.486115 0.000000
2459174.220821 -0.096881 0.486123 0.000000
2459174.220840 -0.096861 0.486132 0.000000
2459174.220859 -0.096842 0.486140 0.000000
2459174.220879 -0.096822 0.486149 0.000000
2459174.220898 -0.096803 0.486157 0.000000
2459174.220918 -0.096784 0.486166 0.000000
2459174.220937 -0.096764 0.486174 0.000000
2459174.220957 -0.096745 0.486183 0.000000
2459174.220976 -0.096725 0.486191 0.000000
2459174.220995 -0.096706 0.486200 0.000000
2459174.221015 -0.096687 0.486208 0.000000
2459174.221034 -0.096667 0.486217 0.000000
2459174.221054 -0.096648 0.486225 0.000000
2459174.221073 -0.096628 0.486234 0.000000
2459174.221092 -0.096609 0.486242 0.000000
2459174.221112 -0.096589 0.486251 0.000000
2459174.221131 -0.096570 0.486259 0.000000
2459174.221151 -0.096551 0.486268 0.000000
2459174.221170 -0.096531 0.486276 0.000000
2459174.221190 -0.096512 0.486285 0.000000
2459174.221209 -0.096492 0.486293 0.000000
2459174.221228 -0.096473 0.486302 0.000000
2459174.221248 -0.096453 0.486310 0.000000
2459174.221267 -0.096434 0.486319 0.000000
2459174.221287 -0.096415 0.486328 0.000000
2459174.221306 -0.096395 0.486336 0.000000
2459174.221326 -0.096376 0.486345 0.000000
2459174.221345 -0.096356 0.486353 0.000000
2459174.221364 -0.096337 0.486362 0.000000
2459174.221384 -0.096317 0.486370 0.000000
2459174.221403 -0.096298 0.486379 0.000000
2459174.221423 -0.096279 0.486387 0.000000
2459174.221442 -0.096259 0.486396 0.000000
2459174.221461 -0.096240 0.486404 0.000000
2459174.221481 -0.096220 0.486413 0.000000
2459174.221500 -0.096201 0.486421 0.000000
2459174.221520 -0.096182 0.486430 0.000000
2459174.221539 -0.096162 0.486438 0.000000
2459174.221559 -0.096143 0.486447 0.000000
2459174.221578 -0.096123 0.486455 0.000000
2459174.221597 -0.096104 0.486464 0.000000
2459174.221617 -0.096084 0.486472 0.000000
2459174.221636 -0.096065 0.486481 0.000000
2459174.221656 -0.096046 0.486489 0.000000
2459174.221675 -0.096026 0.486498 0.000000
2459174.221695 -0.096007 0.486506 0.000000
2459174.221714 -0.095987 0.486515 0.000000
2459174.221733 -0.095968 0.486523 0.000000
2459174.221753 -0.095948 0.486532 0.000000
2459174.221772 -0.095929 0.486540 0.000000
2459174.221792 -0.095910 0.486549 0.000000
2459174.221811 -0.095890 0.486557 0.000000
2459174.221830 -0.095871 0.486566 0.000000
2459174.221850 -0.095851 0.486574 0.000000
2459174.221869 -0.095832 0.486583 0.000000
2459174.221889 -0.095813 0.486591 0.000000
2459174.221908 -0.095793 0.486600 0.000000
2459174.221928 -0.095774 0.486608 0.000000
2459174.221947 -0.095754 0.486617 0.000000
2459174.221966 -0.095735 0.486625 0.000000
2459174.221986 -0.095715 0.486634 0.000000
2459174.222005 -0.095696 0.486642 0.000000
2459174.222025 -0.095677 0.486651 0.000000
2459174.222044 -0.095657 0.486659 0.000000
2459174.222064 -0.095638 0.486668 0.000000
2459174.222083 -0.095618 0.486677 0.000000
2459174.222102 -0.095599 0.486685 0.000000
2459174.222122 -0.095579 0.486694 0.000000
2459174.222141 -0.095560 0.486702 0.000000
2459174.222161 -0.095541 0.486711 0.000000
2459174.222180 -0.095521 0.486719 0.000000
2459174.222200 -0.095502 0.486728 0.000000
2459174.222219 -0.095482 0.486736 0.000000
2459174.222238 -0.095463 0.486745 0.000000
2459174.222258 -0.095444 0.486753 0.000000
2459174.222277 -0.095424 0.486762 0.000000
2459174.222297 -0.095405 0.486770 0.000000
2459174.222316 -0.095385 0.486779 0.000000
2459174.222335 -0.095366 0.486787 0.000000
2459174.222355 -0.095346 0.486796 0.000000
2459174.222374 -0.095327 0.486804 0.000000
2459174.222394 -0.095308 0.486813 0.000000
2459174.222413 -0.095288 0.486821 0.000000
2459174.222433 -0.095269 0.486830 0.000000
2459174.222452 -0.095249 0.486838 0.000000
2459174.222471 -0.095230 0.486847 0.000000
2459174.222491 -0.095210 0.486855 0.000000
2459174.222510 -0.095191 0.486864 0.000000
2459174.222530 -0.095172 0.486872 0.000000
2459174.222549 -0.095152 0.486881 0.000000
2459174.222569 -0.095133 0.486889 0.000000
2459174.222588 -0.095113 0.486898 0.000000
2459174.222607 -0.095094 0.486906 0.000000
2459174.222627 -0.095074 0.486915 0.000000
2459174.222646 -0.095055 0.486923 0.000000
2459174.222666 -0.095036 0.486932 0.000000
2459174.222685 -0.095016 0.486940 0.000000
2459174.222704 -0.094997 0.486949 0.000000
2459174.222724 -0.094977 0.486957 0.000000
2459174.222743 -0.094958 0.486966 0.000000
2459174.222763 -0.094939 0.486974 0.000000
2459174.222782 -0.094919 0.486983 0.000000
2459174.222802 -0.094900 0.486991 0.000000
2459174.222821 -0.094880 0.487000 0.000000
2459174.222840 -0.094861 0.487008 0.000000
2459174.222860 -0.094841 0.487017 0.000000
2459174.222879 -0.094822 0.487026 0.000000
2459174.222899 -0.094803 0.487034 0.000000
2459174.222918 -0.094783 0.487043 0.000000
2459174.222938 -0.094764 0.487051 0.000000
2459174.222957 -0.094744 0.487060 0.000000
2459174.222976 -0.094725 0.487068 0.000000
2459174.222996 -0.094705 0.487077 0.000000
2459174.223015 -0.094686 0.487085 0.000000
2459174.223035 -0.094667 0.487094 0.000000
2459174.223054 -0.094647 0.487102 0.000000
2459174.223073 -0.094628 0.487111 0.000000
2459174.223093 -0.094608 0.487119 0.000000
2459174.223112 -0.094589 0.487128 0.000000
2459174.223132 -0.094570 0.487136 0.000000
2459174.223151 -0.094550 0.487145 0.000000
2459174.223171 -0.094531 0.487153 0.000000
2459174.223190 -0.094511 0.487162 0.000000
2459174.223209 -0.094492 0.487170 0.000000
2459174.223229 -0.094472 0.487179 0.000000
2459174.223248 -0.094453 0.487187 0.000000
2459174.223268 -0.094434 0.487196 0.000000
2459174.223287 -0.094414 0.487204 0.000000
2459174.223307 -0.094395 0.487213 0.000000
2459174.223326 -0.094375 0.487221 0.000000
2459174.223345 -0.094356 0.487230 0.000000
2459174.223365 -0.094336 0.487238 0.000000
2459174.223384 -0.094317 0.487247 0.000000
2459174.223404 -0.094298 0.487255 0.000000
2459174.223423 -0.094278 0.487264 0.000000
2459174.223442 -0.094259 0.487272 0.000000
2459174.223462 -0.094239 0.487281 0.000000
2459174.223481 -0.094220 0.487289 0.000000
2459174.223501 -0.094201 0.487298 0.000000
2459174.223520 -0.094181 0.487306 0.000000
2459174.223540 -0.094162 0.487315 0.000000
2459174.223559 -0.094142 0.487323 0.000000
2459174.223578 -0.094123 0.487332 0.000000
2459174.223598 -0.094103 0.487340 0.000000
2459174.223617 -0.094084 0.487349 0.000000
2459174.223637 -0.094065 0.487357 0.000000
2459174.223656 -0.094045 0.487366 0.000000
2459174.223676 -0.094026 0.487375 0.000000
2459174.223695 -0.094006 0.487383 0.000000
2459174.223714 -0.093987 0.487392 0.000000
2459174.223734 -0.093967 0.487400 0.000000
2459174.223753 -0.093948 0.487409 0.000000
2459174.223773 -0.093929 0.487417 0.000000
2459174.223792 -0.093909 0.487426 0.000000
2459174.223812 -0.093890 0.487434 0.000000
2459174.223831 -0.093870 0.487443 0.000000
2459174.223850 -0.093851 0.487451 0.000000
2459174.223870 -0.093831 0.487460 0.000000
2459174.223889 -0.093812 0.487468 0.000000
2459174.223909 -0.093793 0.487477 0.000000
2459174.223928 -0.093773 0.487485 0.000000
2459174.223947 -0.093754 0.487494 0.000000
2459174.223967 -0.093734 0.487502 0.000000
2459174.223986 -0.093715 0.487511 0.000000
2459174.224006 -0.093696 0.487519 0.000000
2459174.224025 -0.093676 0.487528 0.000000
2459174.224045 -0.093657 0.487536 0.000000
2459174.224064 -0.093637 0.487545 0.000000
2459174.224083 -0.093618 0.487553 0.000000
2459174.224103 -0.093598 0.487562 0.000000
2459174.224122 -0.093579 0.487570 0.000000
2459174.224142 -0.093560 0.487579 0.000000
2459174.224161 -0.093540 0.487587 0.000000
2459174.224181 -0.093521 0.487596 0.000000
2459174.224200 -0.093501 0.487604 0.000000
2459174.224219 -0.093482 0.487613 0.000000
2459174.224239 -0.093462 0.487621 0.000000
2459174.224258 -0.093443 0.487630 0.000000
2459174.224278 -0.093424 0.487638 0.000000
2459174.224297 -0.093404 0.487647 0.000000
2459174.224316 -0.093385 0.487655 0.000000
2459174.224336 -0.093365 0.487664 0.000000
2459174.224355 -0.093346 0.487672 0.000000
2459174.224375 -0.093327 0.487681 0.000000
2459174.224394 -0.093307 0.487689 0.000000
2459174.224414 -0.093288 0.487698 0.000000
2459174.224433 -0.093268 0.487706 0.000000
2459174.224452 -0.093249 0.487715 0.000000
2459174.224472 -0.093229 0.487724 0.000000
2459174.224491 -0.093210 0.487732 0.000000
2459174.224511 -0.093191 0.487741 0.000000
2459174.224530 -0.093171 0.487749 0.000000
2459174.224550 -0.093152 0.487758 0.000000
2459174.224569 -0.093132 0.487766 0.000000
2459174.224588 -0.093113 0.487775 0.000000
2459174.224608 -0.093093 0.487783 0.000000
2459174.224627 -0.093074 0.487792 0.000000
2459174.224647 -0.093055 0.487800 0.000000
2459174.224666 -0.093035 0.487809 0.000000
2459174.224685 -0.093016 0.487817 0.000000
2459174.224705 -0.092996 0.487826 0.000000
2459174.224724 -0.092977 0.487834 0.000000
2459174.224744 -0.092958 0.487843 0.000000
2459174.224763 -0.092938 0.487851 0.000000
2459174.224783 -0.092919 0.487860 0.000000
2459174.224802 -0.092899 0.487868 0.000000
2459174.224821 -0.092880 0.487877 0.000000
2459174.224841 -0.092860 0.487885 0.000000
2459174.224860 -0.092841 0.487894 0.000000
2459174.224880 -0.092822 0.487902 0.000000
2459174.224899 -0.092802 0.487911 0.000000
2459174.224919 -0.092783 0.487919 0.000000
2459174.224938 -0.092763 0.487928 0.000000
2459174.224957 -0.092744 0.487936 0.000000
2459174.224977 -0.092724 0.487945 0.000000
2459174.224996 -0.092705 0.487953 0.000000
2459174.225016 -0.092686 0.487962 0.000000
2459174.225035 -0.092666 0.487970 0.000000
2459174.225055 -0.092647 0.487979 0.000000
2459174.225074 -0.092627 0.487987 0.000000
2459174.225093 -0.092608 0.487996 0.000000
2459174.225113 -0.092589 0.488004 0.000000
2459174.225132 -0.092569 0.488013 0.000000
2459174.225152 -0.092550 0.488021 0.000000
2459174.225171 -0.092530 0.488030 0.000000
2459174.225190 -0.092511 0.488038 0.000000
2459174.225210 -0.092491 0.488047 0.000000
2459174.225229 -0.092472 0.488056 0.000000
2459174.225249 -0.092453 0.488064 0.000000
2459174.225268 -0.092433 0.488073 0.000000
2459174.225288 -0.092414 0.488081 0.000000
2459174.225307 -0.092394 0.488090 0.000000
2459174.225326 -0.092375 0.488098 0.000000
2459174.225346 -0.092355 0.488107 0.000000
2459174.225365 -0.092336 0.488115 0.000000
2459174.225385 -0.092317 0.488124 0.000000
2459174.225404 -0.092297 0.488132 0.000000
2459174.225424 -0.092278 0.488141 0.000000
2459174.225443 -0.092258 0.488149 0.000000
2459174.225462 -0.092239 0.488158 0.000000
2459174.225482 -0.092219 0.488166 0.000000
2459174.225501 -0.092200 0.488175 0.000000
2459174.225521 -0.092181 0.488183 0.000000
2459174.225540 -0.092161 0.488192 0.000000
2459174.225559 -0.092142 0.488200 0.000000
2459174.225579 -0.092122 0.488209 0.000000
2459174.225598 -0.092103 0.488217 0.000000
2459174.225618 -0.092084 0.488226 0.000000
2459174.225637 -0.092064 0.488234 0.000000
2459174.225657 -0.092045 0.488243 0.000000
2459174.225676 -0.092025 0.488251 0.000000
2459174.225695 -0.092006 0.488260 0.000000
2459174.225715 -0.091986 0.488268 0.000000
2459174.225734 -0.091967 0.488277 0.000000
2459174.225754 -0.091948 0.488285 0.000000
2459174.225773 -0.091928 0.488294 0.000000
2459174.225793 -0.091909 0.488302 0.000000
2459174.225812 -0.091889 0.488311 0.000000
2459174.225831 -0.091870 0.488319 0.000000
2459174.225851 -0.091850 0.488328 0.000000
2459174.225870 -0.091831 0.488336 0.000000
2459174.225890 -0.091812 0.488345 0.000000
2459174.225909 -0.091792 0.488353 0.000000
2459174.225928 -0.091773 0.488362 0.000000
2459174.225948 -0.091753 0.488370 0.000000
2459174.225967 -0.091734 0.488379 0.000000
2459174.225987 -0.091715 0.488387 0.000000
2459174.226006 -0.091695 0.488396 0.000000
2459174.226026 -0.091676 0.488405 0.000000
2459174.226045 -0.091656 0.488413 0.000000
2459174.226064 -0.091637 0.488422 0.000000
2459174.226084 -0.091617 0.488430 0.000000
2459174.226103 -0.091598 0.488439 0.000000
2459174.226123 -0.091579 0.488447 0.000000
2459174.226142 -0.091559 0.488456 0.000000
2459174.226162 -0.091540 0.488464 0.000000
2459174.226181 -0.091520 0.488473 0.000000
2459174.226200 -0.091501 0.488481 0.000000
2459174.226220 -0.091481 0.488490 0.000000
2459174.226239 -0.091462 0.488498 0.000000
2459174.226259 -0.091443 0.488507 0.000000
2459174.226278 -0.091423 0.488515 0.000000
2459174.226298 -0.091404 0.488524 0.000000
2459174.226317 -0.091384 0.488532 0.000000
2459174.226336 -0.091365 0.488541 0.000000
2459174.226356 -0.091346 0.488549 0.000000
2459174.226375 -0.091326 0.488558 0.000000
2459174.226395 -0.091307 0.488566 0.000000
2459174.226414 -0.091287 0.488575 0.000000
2459174.226433 -0.091268 0.488583 0.000000
2459174.226453 -0.091248 0.488592 0.000000
2459174.226472 -0.091229 0.488600 0.000000
2459174.226492 -0.091210 0.488609 0.000000
2459174.226511 -0.091190 0.488617 0.000000
2459174.226531 -0.091171 0.488626 0.000000
2459174.226550 -0.091151 0.488634 0.000000
2459174.226569 -0.091132 0.488643 0.000000
2459174.226589 -0.091112 0.488651 0.000000
2459174.226608 -0.091093 0.488660 0.000000
2459174.226628 -0.091074 0.488668 0.000000
2459174.226647 -0.091054 0.488677 0.000000
2459174.226667 -0.091035 0.488685 0.000000
2459174.226686 -0.091015 0.488694 0.000000
2459174.226705 -0.090996 0.488702 0.000000
2459174.226725 -0.090976 0.488711 0.000000
2459174.226744 -0.090957 0.488719 0.000000
2459174.226764 -0.090938 0.488728 0.000000
2459174.226783 -0.090918 0.488736 0.000000
2459174.226802 -0.090899 0.488745 0.000000
2459174.226822 -0.090879 0.488754 0.000000
2459174.226841 -0.090860 0.488762 0.000000
2459174.226861 -0.090841 0.488771 0.000000
2459174.226880 -0.090821 0.488779 0.000000
2459174.226900 -0.090802 0.488788 0.000000
2459174.226919 -0.090782 0.488796 0.000000
2459174.226938 -0.090763 0.488805 0.000000
2459174.226958 -0.090743 0.488813 0.000000
2459174.226977 -0.090724 0.488822 0.000000
2459174.226997 -0.090705 0.488830 0.000000
2459174.227016 -0.090685 0.488839 0.000000
2459174.227036 -0.090666 0.488847 0.000000
2459174.227055 -0.090646 0.488856 0.000000
2459174.227074 -0.090627 0.488864 0.000000
2459174.227094 -0.090607 0.488873 0.000000
2459174.227113 -0.090588 0.488881 0.000000
2459174.227133 -0.090569 0.488890 0.000000
2459174.227152 -0.090549 0.488898 0.000000
2459174.227171 -0.090530 0.488907 0.000000
2459174.227191 -0.090510 0.488915 0.000000
2459174.227210 -0.090491 0.488924 0.000000
2459174.227230 -0.090472 0.488932 0.000000
2459174.227249 -0.090452 0.488941 0.000000
2459174.227269 -0.090433 0.488949 0.000000
2459174.227288 -0.090413 0.488958 0.000000
2459174.227307 -0.090394 0.488966 0.000000
2459174.227327 -0.090374 0.488975 0.000000
2459174.227346 -0.090355 0.488983 0.000000
2459174.227366 -0.090336 0.488992 0.000000
2459174.227385 -0.090316 0.489000 0.000000
2459174.227405 -0.090297 0.489009 0.000000
2459174.227424 -0.090277 0.489017 0.000000
2459174.227443 -0.090258 0.489026 0.000000
2459174.227463 -0.090238 0.489034 0.000000
2459174.227482 -0.090219 0.489043 0.000000
2459174.227502 -0.090200 0.489051 0.000000
2459174.227521 -0.090180 0.489060 0.000000
2459174.227540 -0.090161 0.489068 0.000000
2459174.227560 -0.090141 0.489077 0.000000
2459174.227579 -0.090122 0.489085 0.000000
2459174.227599 -0.090103 0.489094 0.000000
2459174.227618 -0.090083 0.489103 0.000000
2459174.227638 -0.090064 0.489111 0.000000
2459174.227657 -0.090044 0.489120 0.000000
2459174.227676 -0.090025 0.489128 0.000000
2459174.227696 -0.090005 0.489137 0.000000
2459174.227715 -0.089986 0.489145 0.000000
2459174.227735 -0.089967 0.489154 0.000000
2459174.227754 -0.089947 0.489162 0.000000
2459174.227774 -0.089928 0.489171 0.000000
2459174.227793 -0.089908 0.489179 0.000000
2459174.227812 -0.089889 0.489188 0.000000
2459174.227832 -0.089869 0.489196 0.000000
2459174.227851 -0.089850 0.489205 0.000000
2459174.227871 -0.089831 0.489213 0.000000
2459174.227890 -0.089811 0.489222 0.000000
2459174.227910 -0.089792 0.489230 0.000000
2459174.227929 -0.089772 0.489239 0.000000
2459174.227948 -0.089753 0.489247 0.000000
2459174.227968 -0.089733 0.489256 0.000000
2459174.227987 -0.089714 0.489264 0.000000
2459174.228007 -0.089695 0.489273 0.000000
2459174.228026 -0.089675 0.489281 0.000000
2459174.228045 -0.089656 0.489290 0.000000
2459174.228065 -0.089636 0.489298 0.000000
2459174.228084 -0.089617 0.489307 0.000000
2459174.228104 -0.089598 0.489315 0.000000
2459174.228123 -0.089578 0.489324 0.000000
2459174.228143 -0.089559 0.489332 0.000000
2459174.228162 -0.089539 0.489341 0.000000
